Num1
1.593
1.603
1.603
1.598
1.608
1.623
1.628
1.628
1.628
1.642
1.642
1.628
1.623
1.632
1.637
1.632
1.628
1.632
1.632
1.618
1.608
1.618
1.623
1.623
1.623
1.628
1.632
1.628
1.618
1.623
1.632
1.632
1.623
1.623
1.632
1.637
1.623
1.623
1.637
1.642
1.637
1.632
1.642
1.652
1.637
1.628
1.632
1.632
1.623
1.618
1.618
1.632
1.632
1.628
1.637
1.657
1.662
1.652
1.647
1.657
1.662
1.642
1.637
1.652
1.662
1.667
1.676
1.691
1.706
1.701
1.701
1.711
1.716
1.711
1.701
1.701
1.706
1.701
1.681
1.676
1.681
1.667
1.652
1.642
1.642
1.637
1.623
1.623
1.637
1.642
1.642
1.642
1.642
1.647
1.632
1.623
1.632
1.637
1.632
1.623
1.632
1.647
1.642
1.632
1.632
1.642
1.642
1.632
1.623
1.623
1.618
1.598
1.598
1.628
1.647
1.676
1.716
1.774
1.843
1.896
1.95
2.019
2.077
2.107
2.116
2.116
2.097
2.043
1.96
1.882
1.799
1.711
1.623
1.564
1.54
1.53
1.525
1.544
1.584
1.613
1.628
1.637
1.642
1.652
1.632
1.623
1.632
1.642
1.637
1.637
1.637
1.647
1.642
1.623
1.623
1.623
1.618
1.608
1.608
1.618
1.623
1.608
1.613
1.632
1.642
1.642
1.642
1.652
1.662
1.652
1.642
1.647
1.652
1.642
1.637
1.647
1.662
1.662
1.652
1.667
1.686
1.691
1.686
1.681
1.686
1.686
1.672
1.672
1.686
1.696
1.696
1.691
1.701
1.716
1.711
1.701
1.716
1.72
1.716
1.716
1.72
1.73
1.73
1.72
1.725
1.74
1.75
1.755
1.769
1.789
1.799
1.784
1.784
1.799
1.804
1.794
1.789
1.794
1.804
1.794
1.794
1.808
1.823
1.818
1.813
1.818
1.833
1.828
1.818
1.823
1.843
1.843
1.838
1.838
1.848
1.848
1.828
1.823
1.833
1.833
1.828
1.828
1.833
1.833
1.813
1.794
1.799
1.804
1.794
1.784
1.784
1.784
1.774
1.75
1.74
1.735
1.716
1.696
1.686
1.686
1.681
1.662
1.657
1.667
1.667
1.657
1.647
1.647
1.652
1.637
1.628
1.632
1.637
1.628
1.623
1.618
1.628
1.618
1.608
1.618
1.632
1.637
1.632
1.632
1.642
1.642
1.628
1.628
1.642
1.642
1.628
1.618
1.623
1.632
1.628
1.628
1.637
1.647
1.642
1.632
1.632
1.642
1.642
1.628
1.637
1.652
1.652
1.647
1.647
1.652
1.652
1.632
1.628
1.637
1.637
1.628
1.623
1.628
1.642
1.632
1.628
1.637
1.647
1.647
1.642
1.642
1.657
1.652
1.642
1.652
1.667
1.667
1.662
1.657
1.667
1.667
1.647
1.642
1.657
1.667
1.667
1.672
1.686
1.701
1.696
1.686
1.706
1.716
1.711
1.706
1.706
1.706
1.696
1.676
1.676
1.676
1.667
1.652
1.652
1.652
1.647
1.628
1.623
1.632
1.632
1.623
1.618
1.623
1.632
1.623
1.613
1.623
1.632
1.632
1.628
1.632
1.642
1.632
1.618
1.623
1.628
1.623
1.613
1.608
1.618
1.618
1.608
1.608
1.628
1.642
1.662
1.686
1.73
1.794
1.843
1.901
1.97
2.033
2.067
2.082
2.082
2.067
2.023
1.95
1.887
1.818
1.735
1.657
1.598
1.564
1.54
1.515
1.52
1.559
1.588
1.603
1.613
1.637
1.647
1.637
1.628
1.632
1.637
1.632
1.628
1.628
1.637
1.632
1.618
1.623
1.628
1.628
1.618
1.623
1.632
1.642
1.632
1.632
1.642
1.647
1.637
1.632
1.642
1.652
1.642
1.632
1.642
1.652
1.652
1.647
1.652
1.667
1.662
1.657
1.667
1.676
1.676
1.667
1.657
1.662
1.662
1.647
1.647
1.662
1.672
1.672
1.672
1.681
1.686
1.676
1.672
1.681
1.696
1.696
1.696
1.701
1.72
1.72
1.72
1.735
1.75
1.75
1.745
1.74
1.755
1.76
1.75
1.75
1.764
1.774
1.774
1.774
1.789
1.799
1.794
1.789
1.799
1.808
1.804
1.804
1.808
1.823
1.823
1.818
1.828
1.848
1.848
1.843
1.843
1.848
1.852
1.838
1.838
1.848
1.852
1.848
1.838
1.843
1.843
1.823
1.808
1.808
1.808
1.794
1.784
1.774
1.774
1.755
1.725
1.72
1.72
1.716
1.706
1.696
1.701
1.691
1.672
1.662
1.667
1.662
1.642
1.628
1.623
1.628
1.618
1.608
1.618
1.628
1.623
1.613
1.613
1.623
1.618
1.608
1.613
1.628
1.628
1.618
1.618
1.623
1.628
1.613
1.608
1.623
1.628
1.623
1.618
1.623
1.628
1.613
1.603
1.613
1.623
1.623
1.618
1.623
1.637
1.637
1.618
1.613
1.618
1.618
1.608
1.608
1.623
1.632
1.628
1.632
1.647
1.652
1.642
1.632
1.632
1.637
1.623
1.618
1.632
1.642
1.642
1.637
1.637
1.642
1.628
1.608
1.608
1.618
1.618
1.618
1.623
1.637
1.647
1.637
1.642
1.652
1.647
1.637
1.632
1.637
1.652
1.642
1.637
1.652
1.662
1.662
1.657
1.662
1.676
1.676
1.667
1.681
1.696
1.696
1.696
1.696
1.701
1.696
1.676
1.672
1.681
1.672
1.652
1.642
1.642
1.647
1.632
1.618
1.628
1.632
1.632
1.628
1.628
1.637
1.632
1.623
1.623
1.637
1.632
1.623
1.618
1.623
1.623
1.608
1.608
1.623
1.623
1.623
1.613
1.613
1.613
1.598
1.584
1.598
1.618
1.637
1.657
1.696
1.75
1.794
1.838
1.906
1.979
2.033
2.077
2.111
2.141
2.136
2.087
2.033
1.97
1.882
1.774
1.676
1.613
1.569
1.54
1.53
1.554
1.588
1.608
1.623
1.637
1.652
1.647
1.623
1.618
1.623
1.618
1.613
1.608
1.623
1.623
1.608
1.603
1.613
1.618
1.613
1.608
1.613
1.613
1.598
1.584
1.593
1.603
1.603
1.603
1.618
1.642
1.647
1.642
1.652
1.667
1.662
1.647
1.637
1.642
1.637
1.623
1.618
1.628
1.632
1.632
1.632
1.647
1.662
1.657
1.657
1.667
1.676
1.672
1.662
1.662
1.672
1.672
1.657
1.667
1.681
1.686
1.681
1.681
1.691
1.691
1.676
1.681
1.701
1.706
1.701
1.706
1.716
1.735
1.73
1.725
1.745
1.755
1.755
1.76
1.774
1.794
1.799
1.794
1.804
1.818
1.813
1.804
1.804
1.813
1.823
1.813
1.813
1.828
1.843
1.848
1.848
1.857
1.867
1.857
1.852
1.857
1.867
1.867
1.857
1.857
1.862
1.848
1.828
1.823
1.828
1.813
1.799
1.784
1.784
1.774
1.75
1.735
1.74
1.73
1.711
1.691
1.681
1.676
1.657
1.642
1.652
1.657
1.652
1.642
1.632
1.637
1.628
1.613
1.613
1.618
1.618
1.613
1.608
1.618
1.623
1.603
1.598
1.603
1.608
1.598
1.593
1.603
1.608
1.598
1.593
1.603
1.613
1.608
1.598
1.603
1.613
1.603
1.588
1.593
1.603
1.603
1.598
1.593
1.603
1.608
1.593
1.593
1.603
1.608
1.603
1.598
1.603
1.608
1.603
1.593
1.603
1.618
1.613
1.608
1.613
1.623
1.618
1.603
1.613
1.618
1.613
1.603
1.598
1.603
1.603
1.588
1.588
1.603
1.613
1.608
1.608
1.613
1.623
1.613
1.598
1.608
1.618
1.608
1.598
1.603
1.608
1.603
1.588
1.593
1.603
1.603
1.598
1.598
1.608
1.613
1.598
1.598
1.613
1.613
1.603
1.593
1.598
1.608
1.603
1.598
1.618
1.628
1.628
1.628
1.628
1.637
1.632
1.613
1.618
1.632
1.637
1.637
1.642
1.652
1.652
1.632
1.628
1.637
1.637
1.637
1.642
1.657
1.676
1.676
1.676
1.691
1.701
1.691
1.681
1.681
1.681
1.672
1.657
1.662
1.672
1.667
1.657
1.652
1.657
1.657
1.637
1.628
1.632
1.632
1.623
1.613
1.618
1.623
1.613
1.603
1.613
1.623
1.618
1.613
1.618
1.623
1.613
1.598
1.603
1.613
1.613
1.608
1.608
1.618
1.623
1.603
1.603
1.618
1.628
1.632
1.652
1.691
1.745
1.789
1.843
1.921
1.994
2.053
2.097
2.141
2.17
2.17
2.131
2.082
2.019
1.931
1.828
1.73
1.652
1.593
1.54
1.525
1.544
1.564
1.584
1.598
1.623
1.637
1.623
1.598
1.598
1.593
1.588
1.584
1.588
1.603
1.603
1.588
1.598
1.613
1.608
1.598
1.588
1.593
1.603
1.588
1.588
1.603
1.603
1.598
1.598
1.603
1.613
1.598
1.593
1.603
1.613
1.608
1.603
1.603
1.613
1.613
1.603
1.613
1.632
1.637
1.632
1.632
1.642
1.642
1.628
1.628
1.642
1.647
1.642
1.642
1.652
1.662
1.652
1.647
1.657
1.672
1.672
1.667
1.672
1.686
1.686
1.667
1.676
1.696
1.701
1.701
1.716
1.735
1.745
1.735
1.735
1.75
1.75
1.74
1.735
1.745
1.76
1.76
1.76
1.779
1.794
1.799
1.794
1.799
1.813
1.808
1.799
1.813
1.833
1.833
1.828
1.823
1.838
1.848
1.838
1.843
1.857
1.867
1.867
1.862
1.872
1.877
1.862
1.848
1.857
1.857
1.843
1.828
1.823
1.818
1.804
1.779
1.769
1.774
1.764
1.745
1.735
1.73
1.716
1.686
1.672
1.676
1.667
1.652
1.642
1.647
1.657
1.642
1.632
1.642
1.642
1.632
1.618
1.613
1.618
1.613
1.593
1.598
1.608
1.608
1.603
1.598
1.603
1.608
1.588
1.588
1.603
1.613
1.608
1.608
1.618
1.623
1.613
1.598
1.608
1.613
1.608
1.608
1.613
1.623
1.623
1.608
1.613
1.618
1.613
1.603
1.598
1.608
1.613
1.603
1.603
1.618
1.618
1.608
1.603
1.613
1.618
1.603
1.593
1.598
1.608
1.603
1.598
1.603
1.618
1.618
1.608
1.618
1.632
1.628
1.618
1.613
1.613
1.613
1.598
1.593
1.603
1.613
1.608
1.608
1.613
1.623
1.613
1.608
1.623
1.632
1.623
1.618
1.623
1.632
1.623
1.608
1.613
1.628
1.632
1.632
1.632
1.642
1.642
1.618
1.613
1.618
1.613
1.603
1.598
1.613
1.628
1.623
1.623
1.637
1.647
1.637
1.623
1.623
1.632
1.628
1.618
1.628
1.647
1.647
1.642
1.642
1.647
1.652
1.632
1.632
1.642
1.642
1.632
1.632
1.642
1.657
1.642
1.637
1.647
1.662
1.667
1.662
1.667
1.676
1.676
1.662
1.662
1.672
1.672
1.662
1.657
1.667
1.672
1.657
1.652
1.667
1.672
1.667
1.667
1.672
1.681
1.672
1.672
1.691
1.711
1.711
1.711
1.716
1.73
1.73
1.716
1.725
1.735
1.74
1.74
1.74
1.755
1.76
1.745
1.74
1.755
1.76
1.755
1.745
1.755
1.764
1.75
1.74
1.75
1.755
1.745
1.73
1.725
1.73
1.72
1.696
1.696
1.701
1.691
1.676
1.672
1.681
1.686
1.672
1.676
1.691
1.696
1.691
1.686
1.691
1.696
1.686
1.672
1.681
1.691
1.686
1.681
1.681
1.691
1.691
1.691
1.72
1.774
1.833
1.891
1.965
2.043
2.116
2.165
2.209
2.248
2.263
2.239
2.19
2.131
2.058
1.95
1.848
1.764
1.696
1.637
1.603
1.598
1.618
1.637
1.642
1.672
1.691
1.691
1.676
1.662
1.667
1.667
1.652
1.657
1.667
1.672
1.667
1.657
1.662
1.667
1.652
1.642
1.652
1.662
1.667
1.667
1.672
1.681
1.672
1.657
1.662
1.672
1.672
1.667
1.662
1.672
1.676
1.662
1.667
1.686
1.696
1.696
1.701
1.711
1.72
1.706
1.696
1.711
1.72
1.711
1.706
1.706
1.725
1.725
1.72
1.73
1.745
1.745
1.74
1.74
1.75
1.76
1.75
1.755
1.779
1.789
1.789
1.789
1.799
1.813
1.804
1.799
1.808
1.818
1.818
1.818
1.823
1.843
1.848
1.843
1.852
1.872
1.872
1.867
1.867
1.872
1.877
1.867
1.872
1.887
1.901
1.906
1.906
1.921
1.931
1.926
1.911
1.921
1.931
1.926
1.921
1.926
1.94
1.94
1.935
1.945
1.955
1.95
1.94
1.931
1.935
1.935
1.916
1.911
1.921
1.921
1.906
1.891
1.891
1.887
1.862
1.838
1.833
1.823
1.799
1.779
1.764
1.76
1.74
1.72
1.72
1.735
1.735
1.725
1.72
1.72
1.716
1.691
1.681
1.686
1.686
1.681
1.676
1.681
1.686
1.676
1.662
1.672
1.676
1.667
1.662
1.662
1.672
1.667
1.657
1.662
1.672
1.667
1.657
1.657
1.672
1.672
1.662
1.662
1.672
1.676
1.672
1.667
1.672
1.676
1.657
1.647
1.657
1.667
1.657
1.652
1.652
1.662
1.662
1.652
1.657
1.672
1.667
1.657
1.657
1.662
1.657
1.637
1.637
1.652
1.662
1.662
1.657
1.667
1.676
1.667
1.652
1.657
1.657
1.647
1.637
1.628
1.632
1.632
1.623
1.628
1.642
1.642
1.642
1.647
1.667
1.672
1.662
1.657
1.667
1.672
1.662
1.652
1.657
1.662
1.652
1.642
1.652
1.662
1.657
1.652
1.652
1.662
1.652
1.637
1.642
1.652
1.652
1.647
1.647
1.662
1.667
1.652
1.652
1.672
1.676
1.672
1.667
1.676
1.686
1.681
1.676
1.691
1.706
1.706
1.706
1.706
1.72
1.716
1.701
1.706
1.716
1.716
1.711
1.711
1.72
1.72
1.701
1.706
1.72
1.725
1.72
1.716
1.72
1.725
1.701
1.681
1.676
1.672
1.657
1.642
1.637
1.642
1.637
1.628
1.632
1.647
1.647
1.647
1.647
1.652
1.652
1.637
1.632
1.647
1.647
1.637
1.628
1.632
1.637
1.628
1.613
1.623
1.628
1.623
1.623
1.642
1.681
1.725
1.764
1.833
1.916
1.984
2.043
2.102
2.151
2.18
2.165
2.136
2.097
2.028
1.931
1.828
1.735
1.657
1.579
1.53
1.52
1.535
1.559
1.579
1.613
1.642
1.642
1.632
1.632
1.637
1.628
1.623
1.623
1.628
1.632
1.618
1.618
1.628
1.628
1.618
1.613
1.613
1.628
1.618
1.613
1.628
1.642
1.637
1.628
1.628
1.637
1.628
1.613
1.613
1.623
1.628
1.623
1.628
1.642
1.657
1.647
1.647
1.662
1.667
1.662
1.657
1.662
1.676
1.662
1.652
1.662
1.672
1.672
1.667
1.676
1.696
1.691
1.686
1.696
1.706
1.701
1.691
1.691
1.701
1.701
1.696
1.696
1.72
1.735
1.74
1.74
1.745
1.755
1.745
1.735
1.75
1.76
1.755
1.755
1.76
1.774
1.774
1.764
1.774
1.794
1.804
1.804
1.813
1.828
1.838
1.828
1.828
1.848
1.857
1.852
1.848
1.852
1.862
1.857
1.848
1.857
1.862
1.857
1.857
1.862
1.882
1.877
1.862
1.862
1.867
1.857
1.848
1.838
1.843
1.838
1.818
1.808
1.813
1.804
1.784
1.755
1.74
1.725
1.696
1.676
1.676
1.681
1.672
1.662
1.657
1.662
1.652
1.632
1.632
1.642
1.637
1.632
1.628
1.637
1.637
1.618
1.613
1.623
1.623
1.618
1.608
1.618
1.623
1.608
1.603
1.613
1.623
1.623
1.613
1.618
1.623
1.618
1.608
1.613
1.628
1.623
1.618
1.613
1.623
1.628
1.613
1.613
1.623
1.623
1.618
1.613
1.623
1.632
1.618
1.608
1.618
1.628
1.623
1.618
1.623
1.632
1.628
1.613
1.623
1.637
1.637
1.628
1.623
1.628
1.628
1.613
1.608
1.618
1.623
1.618
1.613
1.618
1.628
1.613
1.598
1.608
1.618
1.613
1.608
1.613
1.623
1.623
1.608
1.618
1.628
1.623
1.613
1.613
1.623
1.628
1.613
1.613
1.623
1.623
1.618
1.613
1.618
1.623
1.613
1.608
1.618
1.632
1.628
1.623
1.623
1.628
1.628
1.613
1.623
1.637
1.642
1.642
1.647
1.662
1.667
1.652
1.652
1.662
1.672
1.667
1.667
1.676
1.686
1.676
1.672
1.686
1.696
1.691
1.686
1.686
1.691
1.686
1.672
1.672
1.681
1.676
1.662
1.657
1.662
1.657
1.642
1.632
1.637
1.628
1.613
1.598
1.608
1.618
1.613
1.603
1.613
1.623
1.623
1.613
1.613
1.618
1.613
1.598
1.598
1.613
1.613
1.608
1.603
1.608
1.608
1.588
1.584
1.598
1.618
1.637
1.667
1.711
1.769
1.813
1.867
1.935
1.994
2.033
2.048
2.058
2.063
2.028
1.965
1.901
1.833
1.75
1.657
1.574
1.525
1.496
1.476
1.481
1.52
1.559
1.588
1.608
1.632
1.642
1.628
1.608
1.608
1.613
1.603
1.598
1.603
1.618
1.613
1.598
1.598
1.608
1.598
1.593
1.588
1.603
1.608
1.598
1.598
1.613
1.618
1.613
1.608
1.613
1.623
1.613
1.608
1.623
1.632
1.632
1.628
1.628
1.642
1.637
1.623
1.628
1.637
1.632
1.628
1.628
1.642
1.647
1.632
1.637
1.652
1.657
1.657
1.657
1.662
1.672
1.657
1.647
1.657
1.667
1.662
1.662
1.672
1.691
1.691
1.686
1.696
1.711
1.716
1.716
1.716
1.73
1.73
1.72
1.72
1.74
1.75
1.75
1.75
1.76
1.779
1.774
1.769
1.779
1.789
1.784
1.779
1.784
1.799
1.804
1.794
1.808
1.828
1.833
1.833
1.833
1.843
1.843
1.828
1.823
1.833
1.833
1.828
1.833
1.843
1.857
1.852
1.843
1.848
1.852
1.838
1.823
1.813
1.808
1.794
1.764
1.755
1.76
1.745
1.725
1.711
1.706
1.696
1.672
1.662
1.672
1.672
1.662
1.652
1.647
1.652
1.637
1.623
1.628
1.632
1.623
1.613
1.608
1.618
1.613
1.598
1.603
1.613
1.613
1.608
1.603
1.613
1.613
1.603
1.608
1.623
1.632
1.628
1.623
1.628
1.637
1.628
1.618
1.628
1.637
1.632
1.623
1.623
1.632
1.618
1.598
1.598
1.608
1.608
1.608
1.613
1.623
1.632
1.618
1.613
1.623
1.628
1.618
1.608
1.608
1.618
1.613
1.603
1.618
1.623
1.618
1.613
1.613
1.623
1.618
1.598
1.603
1.618
1.618
1.608
1.598
1.608
1.613
1.593
1.588
1.598
1.598
1.588
1.588
1.598
1.618
1.618
1.613
1.632
1.642
1.637
1.628
1.623
1.623
1.613
1.593
1.593
1.603
1.603
1.593
1.588
1.593
1.598
1.584
1.579
1.588
1.598
1.593
1.593
1.603
1.613
1.598
1.584
1.593
1.603
1.598
1.598
1.608
1.623
1.628
1.623
1.637
1.652
1.652
1.652
1.652
1.662
1.667
1.657
1.662
1.676
1.686
1.676
1.672
1.676
1.691
1.681
1.672
1.676
1.686
1.681
1.672
1.667
1.676
1.667
1.647
1.647
1.652
1.652
1.637
1.632
1.632
1.628
1.608
1.603
1.613
1.618
1.613
1.603
1.613
1.623
1.613
1.608
1.618
1.628
1.628
1.618
1.618
1.623
1.613
1.593
1.593
1.603
1.603
1.608
1.618
1.652
1.696
1.73
1.779
1.852
1.916
1.97
2.019
2.067
2.097
2.092
2.063
2.033
1.975
1.891
1.804
1.716
1.652
1.584
1.53
1.515
1.535
1.549
1.569
1.593
1.632
1.652
1.642
1.637
1.637
1.632
1.618
1.603
1.603
1.613
1.603
1.593
1.608
1.618
1.613
1.608
1.608
1.618
1.618
1.603
1.608
1.618
1.618
1.613
1.608
1.618
1.623
1.608
1.608
1.618
1.618
1.618
1.613
1.623
1.637
1.632
1.618
1.628
1.632
1.632
1.623
1.623
1.632
1.628
1.618
1.628
1.642
1.647
1.647
1.647
1.657
1.662
1.642
1.642
1.657
1.667
1.657
1.657
1.662
1.672
1.662
1.652
1.667
1.681
1.681
1.686
1.691
1.706
1.706
1.696
1.706
1.725
1.73
1.73
1.73
1.745
1.755
1.745
1.75
1.769
1.774
1.764
1.76
1.764
1.774
1.769
1.764
1.784
1.799
1.804
1.804
1.808
1.818
1.818
1.808
1.813
1.828
1.828
1.823
1.823
1.833
1.838
1.823
1.813
1.823
1.823
1.818
1.808
1.813
1.813
1.789
1.764
1.76
1.755
1.74
1.72
1.711
1.711
1.696
1.676
1.672
1.672
1.662
1.647
1.632
1.632
1.628
1.608
1.603
1.608
1.613
1.603
1.593
1.598
1.608
1.598
1.584
1.588
1.593
1.584
1.579
1.584
1.598
1.598
1.584
1.593
1.608
1.613
1.608
1.603
1.603
1.598
1.579
1.574
1.588
1.593
1.593
1.598
1.608
1.623
1.613
1.603
1.608
1.613
1.603
1.593
1.598
1.613
1.613
1.603
1.613
1.623
1.623
1.613
1.603
1.603
1.603
1.588
1.584
1.598
1.608
1.608
1.603
1.608
1.618
1.608
1.598
1.603
1.608
1.603
1.593
1.588
1.598
1.593
1.579
1.584
1.598
1.598
1.593
1.598
1.613
1.618
1.603
1.603
1.613
1.613
1.608
1.598
1.603
1.608
1.598
1.588
1.593
1.598
1.598
1.593
1.598
1.613
1.613
1.598
1.608
1.623
1.623
1.613
1.608
1.608
1.608
1.588
1.584
1.598
1.603
1.603
1.598
1.608
1.618
1.613
1.598
1.613
1.628
1.632
1.632
1.637
1.647
1.647
1.632
1.637
1.657
1.662
1.662
1.662
1.676
1.681
1.667
1.667
1.676
1.681
1.672
1.667
1.672
1.676
1.667
1.657
1.667
1.676
1.672
1.667
1.672
1.686
1.681
1.662
1.657
1.657
1.642
1.623
1.608
1.608
1.603
1.588
1.584
1.598
1.608
1.608
1.603
1.608
1.623
1.608
1.593
1.603
1.613
1.608
1.603
1.603
1.618
1.618
1.608
1.613
1.632
1.642
1.647
1.672
1.716
1.774
1.813
1.872
1.95
2.019
2.067
2.102
2.126
2.131
2.102
2.048
1.989
1.916
1.828
1.735
1.657
1.608
1.564
1.53
1.535
1.564
1.584
1.598
1.613
1.632
1.637
1.623
1.613
1.618
1.618
1.608
1.598
1.598
1.608
1.598
1.588
1.603
1.613
1.613
1.608
1.608
1.618
1.613
1.598
1.603
1.613
1.613
1.603
1.603
1.613
1.623
1.608
1.603
1.618
1.623
1.623
1.613
1.623
1.632
1.623
1.613
1.623
1.637
1.637
1.637
1.642
1.657
1.657
1.642
1.642
1.652
1.652
1.647
1.647
1.657
1.662
1.657
1.657
1.672
1.676
1.672
1.667
1.672
1.686
1.681
1.681
1.696
1.711
1.706
1.701
1.706
1.716
1.72
1.706
1.716
1.735
1.745
1.75
1.76
1.774
1.779
1.769
1.764
1.779
1.789
1.789
1.794
1.799
1.813
1.813
1.808
1.818
1.833
1.828
1.828
1.833
1.843
1.843
1.833
1.843
1.857
1.857
1.848
1.843
1.848
1.848
1.833
1.838
1.852
1.852
1.838
1.818
1.818
1.818
1.799
1.774
1.769
1.769
1.755
1.735
1.725
1.72
1.706
1.681
1.676
1.676
1.667
1.652
1.647
1.647
1.647
1.623
1.618
1.628
1.628
1.623
1.613
1.608
1.613
1.603
1.588
1.593
1.603
1.598
1.593
1.598
1.613
1.608
1.588
1.588
1.603
1.598
1.593
1.593
1.608
1.613
1.598
1.598
1.613
1.623
1.618
1.608
1.613
1.618
1.608
1.593
1.603
1.613
1.613
1.608
1.613
1.628
1.628
1.613
1.613
1.623
1.618
1.608
1.608
1.613
1.623
1.608
1.613
1.628
1.632
1.628
1.618
1.618
1.623
1.608
1.593
1.603
1.613
1.613
1.608
1.613
1.623
1.618
1.603
1.608
1.613
1.608
1.603
1.598
1.613
1.623
1.608
1.608
1.628
1.637
1.632
1.623
1.623
1.628
1.613
1.603
1.613
1.623
1.618
1.618
1.618
1.632
1.632
1.613
1.618
1.628
1.628
1.618
1.613
1.623
1.628
1.613
1.608
1.623
1.632
1.628
1.623
1.632
1.642
1.637
1.632
1.642
1.657
1.652
1.652
1.657
1.672
1.676
1.667
1.681
1.696
1.701
1.701
1.701
1.711
1.716
1.701
1.696
1.711
1.716
1.711
1.706
1.716
1.72
1.711
1.696
1.706
1.716
1.716
1.706
1.701
1.701
1.691
1.672
1.672
1.676
1.667
1.652
1.642
1.642
1.642
1.628
1.623
1.637
1.642
1.642
1.642
1.652
1.657
1.642
1.628
1.637
1.647
1.647
1.637
1.637
1.647
1.647
1.637
1.642
1.662
1.676
1.696
1.725
1.784
1.848
1.901
1.965
2.048
2.111
2.16
2.185
2.204
2.204
2.165
2.097
2.028
1.945
1.843
1.745
1.672
1.628
1.588
1.564
1.569
1.603
1.628
1.647
1.662
1.676
1.676
1.652
1.637
1.637
1.642
1.637
1.632
1.637
1.642
1.632
1.623
1.632
1.642
1.642
1.642
1.642
1.657
1.657
1.647
1.652
1.662
1.667
1.657
1.652
1.657
1.657
1.642
1.632
1.642
1.647
1.642
1.637
1.647
1.667
1.662
1.657
1.672
1.686
1.681
1.672
1.667
1.676
1.676
1.662
1.667
1.681
1.686
1.681
1.681
1.691
1.696
1.681
1.676
1.686
1.691
1.691
1.686
1.701
1.716
1.706
1.696
1.711
1.725
1.725
1.725
1.735
1.75
1.75
1.735
1.74
1.76
1.764
1.764
1.764
1.779
1.794
1.784
1.789
1.808
1.818
1.813
1.808
1.818
1.833
1.833
1.828
1.843
1.852
1.852
1.848
1.852
1.857
1.852
1.838
1.843
1.857
1.857
1.848
1.848
1.852
1.857
1.843
1.838
1.843
1.843
1.833
1.818
1.813
1.808
1.784
1.764
1.764
1.769
1.755
1.735
1.725
1.725
1.716
1.691
1.681
1.681
1.672
1.657
1.652
1.657
1.657
1.642
1.637
1.647
1.647
1.637
1.623
1.618
1.618
1.603
1.588
1.598
1.613
1.613
1.613
1.613
1.623
1.618
1.603
1.603
1.613
1.623
1.623
1.628
1.637
1.647
1.632
1.623
1.628
1.628
1.613
1.603
1.603
1.613
1.603
1.598
1.613
1.623
1.623
1.623
1.623
1.628
1.623
1.613
1.618
1.628
1.628
1.623
1.623
1.628
1.632
1.618
1.613
1.618
1.618
1.613
1.608
1.618
1.628
1.618
1.608
1.613
1.618
1.618
1.613
1.613
1.623
1.623
1.613
1.618
1.637
1.637
1.632
1.623
1.628
1.632
1.623
1.618
1.618
1.623
1.608
1.603
1.608
1.618
1.613
1.603
1.618
1.632
1.632
1.632
1.637
1.642
1.637
1.618
1.623
1.632
1.632
1.628
1.623
1.628
1.628
1.618
1.613
1.628
1.632
1.632
1.632
1.642
1.657
1.652
1.642
1.657
1.672
1.667
1.667
1.667
1.676
1.672
1.657
1.662
1.681
1.686
1.686
1.691
1.711
1.72
1.711
1.711
1.72
1.725
1.716
1.706
1.701
1.706
1.691
1.676
1.686
1.696
1.686
1.672
1.662
1.662
1.647
1.618
1.613
1.618
1.618
1.608
1.608
1.628
1.637
1.628
1.623
1.637
1.642
1.637
1.632
1.637
1.647
1.632
1.623
1.628
1.637
1.623
1.608
1.603
1.608
1.613
1.608
1.637
1.686
1.73
1.779
1.838
1.901
1.965
2.004
2.048
2.087
2.107
2.097
2.067
2.028
1.975
1.891
1.794
1.711
1.647
1.584
1.54
1.525
1.54
1.554
1.564
1.593
1.632
1.647
1.647
1.642
1.642
1.632
1.608
1.593
1.603
1.608
1.608
1.603
1.608
1.623
1.618
1.613
1.623
1.632
1.628
1.623
1.623
1.637
1.632
1.618
1.628
1.637
1.637
1.628
1.623
1.632
1.637
1.628
1.628
1.642
1.652
1.647
1.642
1.647
1.652
1.642
1.632
1.637
1.642
1.637
1.637
1.642
1.662
1.667
1.652
1.657
1.672
1.676
1.672
1.667
1.672
1.676
1.667
1.667
1.681
1.691
1.691
1.686
1.691
1.701
1.696
1.686
1.696
1.716
1.72
1.72
1.725
1.74
1.74
1.73
1.74
1.755
1.76
1.76
1.764
1.779
1.789
1.779
1.779
1.789
1.789
1.784
1.784
1.794
1.804
1.804
1.794
1.808
1.823
1.828
1.828
1.828
1.838
1.833
1.818
1.828
1.848
1.852
1.843
1.838
1.843
1.848
1.828
1.808
1.813
1.808
1.794
1.779
1.769
1.764
1.745
1.72
1.711
1.706
1.686
1.672
1.662
1.667
1.657
1.637
1.637
1.642
1.642
1.637
1.628
1.632
1.637
1.623
1.613
1.623
1.628
1.618
1.603
1.603
1.608
1.593
1.588
1.598
1.608
1.608
1.608
1.613
1.623
1.623
1.603
1.603
1.618
1.613
1.603
1.603
1.613
1.623
1.608
1.603
1.613
1.623
1.618
1.618
1.623
1.628
1.618
1.603
1.608
1.618
1.613
1.608
1.608
1.618
1.618
1.608
1.613
1.632
1.637
1.628
1.618
1.623
1.628
1.608
1.598
1.603
1.608
1.603
1.598
1.603
1.618
1.613
1.603
1.613
1.623
1.618
1.603
1.598
1.608
1.608
1.598
1.603
1.618
1.618
1.613
1.608
1.618
1.618
1.603
1.593
1.608
1.613
1.608
1.603
1.608
1.623
1.618
1.608
1.618
1.628
1.628
1.623
1.618
1.623
1.613
1.593
1.598
1.613
1.613
1.613
1.613
1.623
1.632
1.623
1.618
1.637
1.647
1.652
1.652
1.667
1.681
1.681
1.676
1.686
1.701
1.701
1.696
1.696
1.706
1.696
1.672
1.667
1.676
1.672
1.662
1.657
1.667
1.681
1.667
1.662
1.667
1.667
1.647
1.628
1.623
1.628
1.613
1.598
1.603
1.613
1.618
1.608
1.608
1.618
1.613
1.598
1.598
1.613
1.618
1.613
1.608
1.618
1.618
1.603
1.598
1.608
1.613
1.613
1.613
1.628
1.662
1.681
1.711
1.764
1.828
1.882
1.931
1.984
2.038
2.063
2.058
2.058
2.048
1.999
1.931
1.852
1.774
1.701
1.613
1.554
1.53
1.52
1.52
1.535
1.564
1.603
1.623
1.623
1.632
1.637
1.623
1.603
1.593
1.598
1.598
1.584
1.593
1.618
1.632
1.632
1.628
1.632
1.637
1.618
1.608
1.618
1.618
1.613
1.613
1.623
1.632
1.628
1.618
1.623
1.632
1.632
1.623
1.623
1.628
1.628
1.618
1.623
1.637
1.642
1.642
1.642
1.647
1.652
1.642
1.637
1.652
1.657
1.657
1.652
1.657
1.667
1.662
1.647
1.657
1.667
1.662
1.657
1.662
1.681
1.691
1.686
1.696
1.716
1.72
1.716
1.72
1.725
1.735
1.72
1.72
1.73
1.745
1.74
1.74
1.75
1.764
1.764
1.755
1.764
1.784
1.789
1.784
1.789
1.804
1.808
1.799
1.804
1.823
1.823
1.818
1.813
1.823
1.823
1.808
1.799
1.813
1.823
1.823
1.823
1.838
1.848
1.843
1.833
1.843
1.848
1.843
1.833
1.828
1.833
1.823
1.799
1.789
1.789
1.779
1.764
1.755
1.75
1.745
1.716
1.701
1.696
1.691
1.676
1.662
1.657
1.662
1.652
1.642
1.647
1.652
1.637
1.623
1.608
1.608
1.603
1.588
1.588
1.603
1.603
1.603
1.603
1.613
1.623
1.608
1.603
1.613
1.618
1.613
1.608
1.613
1.618
1.608
1.598
1.613
1.623
1.623
1.618
1.623
1.632
1.637
1.628
1.628
1.642
1.642
1.637
1.637
1.637
1.637
1.613
1.603
1.613
1.623
1.618
1.608
1.613
1.628
1.628
1.618
1.623
1.628
1.623
1.618
1.613
1.623
1.623
1.608
1.608
1.623
1.623
1.618
1.613
1.618
1.623
1.608
1.598
1.608
1.613
1.608
1.603
1.613
1.623
1.618
1.603
1.613
1.628
1.623
1.618
1.613
1.623
1.623
1.613
1.618
1.628
1.632
1.628
1.623
1.628
1.628
1.613
1.603
1.613
1.623
1.618
1.608
1.613
1.623
1.618
1.608
1.613
1.623
1.623
1.623
1.628
1.642
1.647
1.637
1.642
1.657
1.657
1.652
1.647
1.652
1.657
1.642
1.642
1.657
1.672
1.676
1.676
1.686
1.696
1.696
1.681
1.691
1.696
1.691
1.681
1.686
1.701
1.701
1.686
1.686
1.696
1.691
1.676
1.667
1.662
1.657
1.632
1.618
1.623
1.623
1.618
1.613
1.623
1.632
1.623
1.613
1.618
1.628
1.623
1.613
1.608
1.613
1.618
1.603
1.608
1.623
1.618
1.603
1.593
1.593
1.598
1.588
1.593
1.623
1.667
1.716
1.769
1.838
1.906
1.96
1.999
2.058
2.111
2.136
2.131
2.107
2.067
1.999
1.901
1.808
1.725
1.637
1.569
1.525
1.525
1.544
1.549
1.574
1.613
1.637
1.637
1.632
1.623
1.618
1.598
1.579
1.579
1.593
1.593
1.593
1.593
1.603
1.598
1.579
1.579
1.593
1.598
1.593
1.593
1.603
1.613
1.608
1.608
1.623
1.623
1.613
1.603
1.603
1.613
1.598
1.584
1.588
1.608
1.613
1.613
1.618
1.637
1.642
1.628
1.628
1.642
1.642
1.637
1.628
1.632
1.647
1.642
1.642
1.657
1.672
1.672
1.672
1.676
1.686
1.681
1.667
1.676
1.691
1.691
1.686
1.681
1.691
1.691
1.681
1.686
1.706
1.72
1.72
1.725
1.74
1.755
1.745
1.735
1.745
1.755
1.755
1.755
1.764
1.784
1.784
1.779
1.789
1.804
1.808
1.808
1.813
1.828
1.833
1.818
1.818
1.833
1.838
1.838
1.833
1.838
1.848
1.838
1.838
1.852
1.862
1.857
1.852
1.852
1.857
1.848
1.828
1.828
1.838
1.823
1.813
1.799
1.799
1.789
1.764
1.76
1.76
1.75
1.73
1.711
1.701
1.696
1.672
1.652
1.647
1.642
1.632
1.623
1.623
1.632
1.628
1.618
1.618
1.623
1.623
1.613
1.608
1.618
1.623
1.613
1.618
1.632
1.637
1.632
1.628
1.628
1.632
1.613
1.598
1.608
1.618
1.618
1.618
1.628
1.637
1.632
1.618
1.618
1.628
1.628
1.623
1.618
1.628
1.628
1.608
1.613
1.628
1.632
1.632
1.628
1.632
1.637
1.618
1.608
1.618
1.623
1.618
1.608
1.613
1.623
1.623
1.618
1.628
1.642
1.642
1.637
1.637
1.642
1.642
1.618
1.618
1.628
1.628
1.628
1.628
1.642
1.652
1.647
1.637
1.647
1.652
1.647
1.642
1.642
1.652
1.642
1.628
1.632
1.642
1.637
1.637
1.637
1.652
1.662
1.652
1.667
1.686
1.696
1.696
1.691
1.701
1.711
1.701
1.696
1.706
1.711
1.706
1.696
1.691
1.686
1.667
1.647
1.647
1.652
1.647
1.637
1.637
1.647
1.647
1.632
1.637
1.647
1.652
1.647
1.637
1.632
1.637
1.618
1.608
1.613
1.613
1.608
1.608
1.618
1.632
1.632
1.623
1.632
1.642
1.632
1.623
1.618
1.623
1.632
1.632
1.662
1.72
1.784
1.852
1.916
1.994
2.067
2.111
2.141
2.18
2.19
2.165
2.111
2.043
1.965
1.862
1.755
1.672
1.613
1.569
1.544
1.544
1.574
1.603
1.618
1.637
1.662
1.667
1.657
1.642
1.637
1.632
1.608
1.593
1.603
1.613
1.613
1.608
1.613
1.628
1.623
1.613
1.613
1.628
1.623
1.623
1.618
1.628
1.632
1.623
1.628
1.642
1.642
1.637
1.632
1.642
1.652
1.642
1.637
1.647
1.652
1.647
1.642
1.647
1.662
1.662
1.652
1.662
1.681
1.686
1.681
1.681
1.686
1.686
1.667
1.662
1.676
1.686
1.686
1.691
1.701
1.716
1.706
1.701
1.711
1.716
1.711
1.706
1.711
1.72
1.725
1.72
1.74
1.76
1.764
1.764
1.764
1.779
1.784
1.774
1.774
1.794
1.804
1.799
1.799
1.813
1.833
1.823
1.823
1.838
1.848
1.848
1.848
1.852
1.862
1.862
1.843
1.848
1.862
1.862
1.857
1.862
1.877
1.877
1.862
1.862
1.877
1.882
1.877
1.872
1.872
1.872
1.852
1.833
1.828
1.828
1.808
1.794
1.779
1.784
1.769
1.745
1.74
1.74
1.725
1.716
1.701
1.701
1.691
1.672
1.667
1.681
1.681
1.667
1.657
1.652
1.652
1.637
1.623
1.628
1.637
1.632
1.623
1.628
1.637
1.632
1.618
1.618
1.628
1.628
1.618
1.623
1.632
1.642
1.632
1.637
1.652
1.657
1.657
1.647
1.652
1.652
1.637
1.628
1.637
1.642
1.632
1.628
1.632
1.642
1.642
1.632
1.637
1.652
1.652
1.647
1.642
1.652
1.652
1.637
1.637
1.652
1.657
1.657
1.657
1.662
1.672
1.657
1.642
1.652
1.652
1.642
1.637
1.642
1.662
1.667
1.657
1.672
1.681
1.681
1.676
1.672
1.676
1.681
1.667
1.676
1.696
1.716
1.716
1.72
1.73
1.74
1.725
1.711
1.716
1.72
1.706
1.691
1.681
1.681
1.667
1.647
1.652
1.667
1.667
1.657
1.652
1.662
1.662
1.642
1.637
1.642
1.642
1.632
1.628
1.637
1.647
1.637
1.628
1.632
1.637
1.628
1.623
1.623
1.642
1.642
1.628
1.632
1.642
1.642
1.628
1.623
1.632
1.647
1.652
1.681
1.74
1.804
1.867
1.931
1.994
2.063
2.102
2.126
2.151
2.155
2.121
2.067
1.994
1.921
1.823
1.711
1.637
1.588
1.554
1.54
1.549
1.579
1.613
1.628
1.647
1.676
1.681
1.676
1.662
1.657
1.652
1.632
1.618
1.628
1.637
1.637
1.637
1.647
1.662
1.662
1.647
1.652
1.662
1.657
1.647
1.647
1.652
1.657
1.642
1.642
1.657
1.662
1.657
1.652
1.662
1.672
1.662
1.657
1.672
1.686
1.681
1.681
1.681
1.696
1.691
1.676
1.681
1.696
1.701
1.696
1.691
1.701
1.706
1.696
1.691
1.701
1.701
1.701
1.696
1.711
1.72
1.72
1.716
1.73
1.745
1.745
1.74
1.74
1.75
1.75
1.735
1.745
1.755
1.76
1.755
1.76
1.774
1.779
1.774
1.774
1.794
1.804
1.804
1.804
1.813
1.823
1.813
1.804
1.823
1.838
1.838
1.843
1.852
1.867
1.872
1.862
1.872
1.882
1.887
1.877
1.872
1.877
1.887
1.872
1.872
1.882
1.877
1.867
1.852
1.848
1.843
1.823
1.799
1.804
1.808
1.799
1.779
1.764
1.764
1.75
1.725
1.72
1.72
1.711
1.701
1.691
1.696
1.691
1.667
1.657
1.662
1.662
1.647
1.642
1.647
1.657
1.642
1.637
1.652
1.662
1.657
1.652
1.647
1.652
1.647
1.632
1.637
1.647
1.642
1.642
1.642
1.657
1.662
1.652
1.652
1.667
1.672
1.667
1.662
1.662
1.667
1.652
1.642
1.647
1.657
1.652
1.647
1.652
1.667
1.667
1.652
1.657
1.672
1.672
1.667
1.667
1.676
1.681
1.667
1.672
1.686
1.696
1.691
1.681
1.686
1.696
1.691
1.681
1.696
1.711
1.711
1.711
1.711
1.72
1.711
1.686
1.686
1.701
1.696
1.696
1.696
1.706
1.711
1.686
1.676
1.676
1.662
1.637
1.623
1.628
1.637
1.628
1.623
1.632
1.637
1.637
1.628
1.623
1.628
1.623
1.608
1.613
1.632
1.632
1.628
1.623
1.632
1.642
1.628
1.623
1.632
1.632
1.628
1.618
1.628
1.632
1.628
1.623
1.647
1.686
1.716
1.76
1.818
1.887
1.94
1.979
2.023
2.063
2.067
2.048
2.019
1.975
1.911
1.818
1.73
1.672
1.618
1.569
1.54
1.535
1.549
1.554
1.564
1.603
1.632
1.642
1.642
1.637
1.642
1.632
1.613
1.608
1.618
1.618
1.608
1.613
1.623
1.628
1.613
1.613
1.628
1.632
1.632
1.637
1.647
1.662
1.652
1.642
1.647
1.657
1.647
1.637
1.632
1.642
1.647
1.637
1.647
1.667
1.676
1.672
1.672
1.681
1.681
1.662
1.657
1.672
1.676
1.676
1.676
1.686
1.696
1.686
1.672
1.686
1.696
1.691
1.681
1.686
1.701
1.701
1.691
1.701
1.716
1.72
1.72
1.725
1.74
1.75
1.74
1.735
1.75
1.755
1.755
1.75
1.76
1.774
1.769
1.764
1.784
1.789
1.789
1.779
1.789
1.804
1.808
1.799
1.808
1.828
1.833
1.828
1.828
1.833
1.838
1.823
1.823
1.843
1.852
1.852
1.848
1.852
1.862
1.852
1.843
1.852
1.862
1.857
1.848
1.848
1.848
1.833
1.808
1.804
1.808
1.799
1.779
1.764
1.76
1.755
1.725
1.711
1.711
1.701
1.681
1.667
1.667
1.672
1.652
1.642
1.652
1.662
1.657
1.647
1.642
1.647
1.642
1.628
1.632
1.642
1.642
1.642
1.642
1.652
1.657
1.637
1.632
1.642
1.642
1.637
1.632
1.642
1.652
1.637
1.628
1.632
1.642
1.637
1.632
1.637
1.652
1.652
1.637
1.642
1.657
1.652
1.652
1.652
1.662
1.662
1.642
1.637
1.652
1.662
1.657
1.652
1.662
1.676
1.672
1.667
1.681
1.696
1.686
1.676
1.672
1.686
1.686
1.676
1.681
1.701
1.701
1.696
1.696
1.701
1.706
1.691
1.681
1.691
1.696
1.691
1.681
1.681
1.686
1.667
1.652
1.662
1.667
1.657
1.647
1.642
1.652
1.647
1.628
1.628
1.637
1.637
1.632
1.632
1.637
1.637
1.618
1.613
1.623
1.632
1.628
1.628
1.632
1.642
1.632
1.623
1.628
1.628
1.618
1.608
1.603
1.613
1.613
1.603
1.618
1.647
1.681
1.72
1.769
1.838
1.906
1.955
2.014
2.067
2.107
2.111
2.097
2.067
2.019
1.931
1.833
1.755
1.681
1.613
1.559
1.535
1.535
1.549
1.559
1.588
1.628
1.642
1.647
1.647
1.647
1.647
1.628
1.618
1.632
1.637
1.628
1.613
1.613
1.618
1.603
1.588
1.598
1.608
1.608
1.603
1.613
1.632
1.632
1.618
1.623
1.637
1.637
1.632
1.628
1.637
1.637
1.623
1.623
1.642
1.647
1.647
1.642
1.647
1.662
1.652
1.642
1.657
1.667
1.662
1.647
1.647
1.657
1.657
1.647
1.652
1.662
1.667
1.667
1.667
1.681
1.691
1.676
1.672
1.691
1.701
1.706
1.701
1.706
1.716
1.701
1.691
1.701
1.716
1.72
1.725
1.735
1.755
1.76
1.75
1.755
1.764
1.764
1.764
1.769
1.784
1.799
1.799
1.799
1.818
1.833
1.828
1.823
1.828
1.838
1.833
1.823
1.838
1.852
1.848
1.833
1.828
1.833
1.833
1.818
1.823
1.838
1.838
1.833
1.828
1.833
1.833
1.804
1.784
1.789
1.784
1.769
1.76
1.76
1.764
1.745
1.725
1.72
1.716
1.691
1.672
1.662
1.657
1.647
1.632
1.632
1.647
1.642
1.637
1.632
1.637
1.637
1.618
1.613
1.628
1.632
1.628
1.618
1.623
1.628
1.613
1.598
1.608
1.623
1.628
1.623
1.628
1.637
1.632
1.613
1.613
1.618
1.613
1.603
1.603
1.613
1.623
1.613
1.618
1.632
1.642
1.632
1.618
1.618
1.623
1.618
1.608
1.618
1.632
1.637
1.637
1.647
1.657
1.657
1.642
1.642
1.652
1.652
1.642
1.642
1.647
1.647
1.632
1.632
1.647
1.657
1.657
1.657
1.672
1.691
1.691
1.691
1.706
1.72
1.725
1.716
1.706
1.706
1.696
1.667
1.662
1.662
1.652
1.637
1.628
1.628
1.628
1.603
1.593
1.603
1.608
1.598
1.593
1.603
1.618
1.613
1.598
1.613
1.623
1.623
1.618
1.618
1.628
1.628
1.613
1.613
1.628
1.623
1.613
1.608
1.613
1.613
1.598
1.593
1.608
1.618
1.623
1.632
1.662
1.706
1.74
1.779
1.838
1.906
1.96
1.999
2.033
2.063
2.063
2.028
1.989
1.94
1.862
1.774
1.691
1.628
1.584
1.54
1.53
1.549
1.574
1.598
1.618
1.637
1.642
1.628
1.608
1.613
1.618
1.613
1.608
1.608
1.623
1.618
1.593
1.588
1.593
1.588
1.584
1.584
1.598
1.618
1.608
1.608
1.623
1.623
1.613
1.598
1.593
1.598
1.593
1.584
1.593
1.608
1.613
1.618
1.623
1.632
1.628
1.613
1.613
1.628
1.632
1.632
1.632
1.647
1.657
1.647
1.642
1.652
1.657
1.642
1.632
1.632
1.647
1.647
1.647
1.672
1.696
1.701
1.701
1.711
1.72
1.716
1.691
1.691
1.706
1.706
1.701
1.701
1.711
1.72
1.711
1.711
1.73
1.74
1.735
1.735
1.745
1.76
1.755
1.745
1.755
1.774
1.779
1.784
1.799
1.823
1.833
1.823
1.828
1.843
1.843
1.828
1.818
1.818
1.823
1.813
1.813
1.823
1.828
1.828
1.823
1.833
1.843
1.838
1.823
1.823
1.833
1.823
1.804
1.794
1.789
1.774
1.74
1.725
1.725
1.72
1.706
1.696
1.696
1.691
1.672
1.657
1.662
1.662
1.652
1.642
1.647
1.652
1.637
1.623
1.623
1.628
1.623
1.613
1.618
1.628
1.632
1.618
1.623
1.637
1.642
1.632
1.623
1.628
1.628
1.613
1.608
1.618
1.623
1.618
1.613
1.613
1.618
1.603
1.593
1.608
1.618
1.623
1.613
1.618
1.628
1.623
1.603
1.603
1.613
1.608
1.603
1.598
1.608
1.623
1.613
1.613
1.623
1.628
1.623
1.618
1.623
1.628
1.618
1.603
1.613
1.623
1.618
1.618
1.618
1.632
1.637
1.632
1.642
1.657
1.662
1.657
1.652
1.652
1.657
1.642
1.637
1.652
1.662
1.667
1.667
1.676
1.691
1.691
1.676
1.686
1.696
1.691
1.681
1.681
1.691
1.686
1.667
1.662
1.672
1.667
1.652
1.637
1.632
1.632
1.613
1.603
1.618
1.628
1.632
1.628
1.632
1.637
1.623
1.603
1.603
1.603
1.593
1.588
1.593
1.613
1.623
1.613
1.613
1.628
1.632
1.623
1.623
1.628
1.628
1.613
1.608
1.618
1.628
1.632
1.642
1.676
1.73
1.779
1.828
1.896
1.965
2.019
2.063
2.087
2.102
2.087
2.028
1.97
1.911
1.828
1.74
1.662
1.608
1.579
1.549
1.544
1.569
1.598
1.618
1.628
1.632
1.642
1.628
1.608
1.603
1.608
1.603
1.603
1.608
1.623
1.628
1.613
1.613
1.623
1.623
1.618
1.608
1.613
1.618
1.608
1.598
1.603
1.608
1.608
1.603
1.618
1.623
1.618
1.608
1.618
1.628
1.628
1.618
1.618
1.632
1.637
1.628
1.632
1.647
1.647
1.642
1.637
1.642
1.652
1.637
1.632
1.642
1.647
1.642
1.642
1.647
1.662
1.657
1.657
1.672
1.696
1.701
1.696
1.696
1.706
1.706
1.686
1.691
1.706
1.711
1.711
1.716
1.73
1.74
1.73
1.72
1.73
1.74
1.74
1.74
1.75
1.764
1.769
1.76
1.774
1.794
1.794
1.789
1.789
1.804
1.808
1.804
1.813
1.828
1.838
1.833
1.823
1.828
1.833
1.818
1.813
1.823
1.828
1.828
1.828
1.833
1.848
1.843
1.828
1.833
1.833
1.823
1.808
1.794
1.789
1.779
1.755
1.745
1.75
1.74
1.72
1.701
1.696
1.691
1.667
1.652
1.662
1.662
1.652
1.642
1.642
1.647
1.637
1.618
1.618
1.628
1.628
1.623
1.618
1.623
1.623
1.603
1.603
1.618
1.618
1.613
1.613
1.618
1.623
1.608
1.603
1.618
1.628
1.623
1.623
1.623
1.632
1.623
1.603
1.608
1.608
1.598
1.588
1.584
1.598
1.608
1.593
1.603
1.623
1.623
1.618
1.618
1.628
1.632
1.618
1.608
1.618
1.623
1.618
1.608
1.608
1.623
1.613
1.603
1.608
1.623
1.623
1.613
1.618
1.628
1.628
1.613
1.613
1.628
1.632
1.623
1.618
1.623
1.632
1.618
1.608
1.618
1.623
1.618
1.613
1.618
1.628
1.623
1.613
1.623
1.637
1.637
1.632
1.632
1.642
1.642
1.628
1.637
1.652
1.652
1.642
1.637
1.642
1.642
1.628
1.623
1.637
1.647
1.647
1.652
1.662
1.681
1.686
1.676
1.686
1.696
1.696
1.691
1.686
1.696
1.691
1.667
1.662
1.667
1.667
1.652
1.642
1.642
1.637
1.623
1.613
1.623
1.628
1.623
1.618
1.623
1.637
1.632
1.623
1.628
1.637
1.628
1.613
1.613
1.623
1.628
1.618
1.623
1.637
1.642
1.637
1.632
1.628
1.628
1.603
1.593
1.613
1.637
1.667
1.706
1.764
1.843
1.911
1.975
2.053
2.121
2.165
2.185
2.185
2.17
2.126
2.033
1.945
1.862
1.769
1.676
1.608
1.574
1.564
1.549
1.554
1.584
1.613
1.628
1.632
1.642
1.647
1.637
1.623
1.628
1.642
1.642
1.637
1.632
1.642
1.642
1.623
1.618
1.632
1.632
1.628
1.623
1.632
1.642
1.632
1.628
1.642
1.657
1.652
1.642
1.642
1.647
1.642
1.628
1.632
1.642
1.637
1.632
1.637
1.642
1.647
1.628
1.628
1.637
1.637
1.628
1.628
1.632
1.642
1.637
1.637
1.657
1.672
1.681
1.681
1.686
1.691
1.681
1.662
1.662
1.672
1.672
1.667
1.672
1.691
1.701
1.696
1.701
1.72
1.72
1.72
1.72
1.73
1.745
1.74
1.735
1.75
1.764
1.764
1.764
1.769
1.774
1.769
1.764
1.774
1.784
1.779
1.774
1.774
1.789
1.799
1.789
1.794
1.813
1.818
1.818
1.823
1.833
1.838
1.828
1.823
1.833
1.838
1.833
1.823
1.833
1.843
1.833
1.818
1.823
1.828
1.823
1.808
1.799
1.799
1.789
1.76
1.75
1.755
1.75
1.735
1.725
1.72
1.711
1.686
1.667
1.672
1.667
1.657
1.652
1.652
1.657
1.642
1.623
1.628
1.632
1.628
1.613
1.613
1.628
1.632
1.618
1.618
1.632
1.637
1.628
1.623
1.628
1.632
1.613
1.603
1.613
1.618
1.608
1.603
1.608
1.613
1.608
1.598
1.608
1.623
1.623
1.618
1.613
1.623
1.623
1.613
1.618
1.632
1.632
1.628
1.618
1.623
1.628
1.613
1.598
1.608
1.613
1.603
1.598
1.608
1.623
1.618
1.603
1.613
1.623
1.618
1.603
1.603
1.608
1.608
1.588
1.588
1.608
1.618
1.613
1.608
1.613
1.618
1.608
1.598
1.608
1.618
1.613
1.608
1.613
1.623
1.618
1.603
1.608
1.623
1.618
1.608
1.608
1.623
1.623
1.613
1.613
1.628
1.632
1.623
1.623
1.628
1.637
1.628
1.632
1.652
1.672
1.672
1.676
1.686
1.701
1.696
1.676
1.676
1.686
1.681
1.676
1.672
1.681
1.676
1.657
1.647
1.657
1.647
1.628
1.613
1.618
1.618
1.603
1.593
1.608
1.618
1.618
1.613
1.618
1.628
1.618
1.603
1.608
1.618
1.613
1.608
1.603
1.618
1.618
1.603
1.603
1.618
1.618
1.603
1.593
1.598
1.598
1.593
1.593
1.623
1.657
1.696
1.745
1.808
1.882
1.94
1.989
2.048
2.097
2.121
2.121
2.107
2.077
2.023
1.931
1.838
1.75
1.657
1.579
1.525
1.505
1.51
1.515
1.54
1.584
1.628
1.647
1.652
1.652
1.657
1.642
1.618
1.618
1.623
1.618
1.608
1.608
1.613
1.613
1.593
1.593
1.608
1.613
1.608
1.608
1.618
1.628
1.618
1.608
1.623
1.637
1.632
1.632
1.637
1.642
1.637
1.623
1.628
1.642
1.647
1.642
1.642
1.652
1.652
1.637
1.637
1.647
1.647
1.647
1.642
1.652
1.667
1.662
1.657
1.672
1.686
1.681
1.676
1.681
1.691
1.686
1.676
1.681
1.696
1.696
1.691
1.691
1.706
1.711
1.701
1.711
1.73
1.73
1.73
1.73
1.735
1.74
1.735
1.73
1.75
1.764
1.769
1.774
1.789
1.804
1.804
1.789
1.799
1.808
1.813
1.808
1.808
1.818
1.823
1.813
1.818
1.833
1.843
1.838
1.838
1.852
1.862
1.848
1.833
1.838
1.843
1.833
1.823
1.823
1.833
1.828
1.813
1.813
1.818
1.808
1.789
1.779
1.774
1.769
1.745
1.745
1.755
1.755
1.735
1.72
1.716
1.711
1.681
1.662
1.667
1.667
1.657
1.647
1.657
1.667
1.662
1.647
1.652
1.657
1.652
1.637
1.632
1.637
1.637
1.623
1.628
1.642
1.647
1.642
1.632
1.637
1.637
1.623
1.608
1.618
1.623
1.623
1.618
1.628
1.637
1.637
1.623
1.628
1.637
1.637
1.632
1.632
1.637
1.642
1.623
1.623
1.632
1.632
1.623
1.613
1.613
1.618
1.598
1.593
1.608
1.623
1.623
1.618
1.628
1.637
1.637
1.628
1.637
1.647
1.647
1.637
1.632
1.642
1.642
1.628
1.623
1.637
1.642
1.642
1.642
1.657
1.667
1.652
1.647
1.652
1.662
1.657
1.657
1.667
1.681
1.686
1.681
1.691
1.706
1.706
1.701
1.701
1.706
1.701
1.676
1.672
1.672
1.662
1.652
1.637
1.642
1.647
1.632
1.623
1.637
1.647
1.642
1.632
1.632
1.637
1.628
1.613
1.613
1.623
1.618
1.613
1.608
1.618
1.623
1.608
1.608
1.628
1.632
1.632
1.628
1.637
1.642
1.632
1.623
1.632
1.632
1.632
1.637
1.662
1.706
1.75
1.794
1.867
1.945
1.999
2.038
2.067
2.087
2.077
2.033
1.989
1.935
1.852
1.764
1.676
1.608
1.564
1.52
1.5
1.52
1.554
1.584
1.613
1.642
1.672
1.672
1.652
1.647
1.642
1.628
1.618
1.613
1.623
1.623
1.608
1.613
1.632
1.637
1.632
1.632
1.637
1.647
1.637
1.632
1.642
1.647
1.642
1.637
1.637
1.647
1.642
1.628
1.637
1.652
1.652
1.652
1.652
1.667
1.667
1.652
1.647
1.652
1.657
1.657
1.657
1.667
1.676
1.672
1.676
1.691
1.706
1.706
1.696
1.696
1.701
1.691
1.676
1.681
1.696
1.691
1.691
1.691
1.706
1.711
1.701
1.706
1.716
1.716
1.711
1.706
1.72
1.74
1.73
1.73
1.745
1.755
1.755
1.75
1.76
1.769
1.769
1.76
1.769
1.789
1.794
1.794
1.794
1.799
1.799
1.784
1.789
1.804
1.813
1.813
1.818
1.833
1.843
1.833
1.823
1.833
1.838
1.833
1.828
1.828
1.833
1.828
1.813
1.818
1.823
1.808
1.794
1.779
1.774
1.764
1.735
1.725
1.73
1.725
1.716
1.706
1.701
1.701
1.681
1.662
1.662
1.662
1.652
1.637
1.637
1.647
1.642
1.628
1.637
1.647
1.642
1.632
1.628
1.628
1.623
1.603
1.603
1.623
1.628
1.628
1.632
1.642
1.652
1.637
1.628
1.637
1.647
1.637
1.632
1.632
1.642
1.632
1.618
1.623
1.632
1.632
1.628
1.628
1.637
1.647
1.632
1.632
1.642
1.642
1.637
1.632
1.642
1.652
1.642
1.632
1.647
1.657
1.652
1.647
1.647
1.662
1.652
1.642
1.647
1.657
1.662
1.657
1.657
1.667
1.672
1.657
1.662
1.681
1.686
1.686
1.686
1.691
1.701
1.686
1.672
1.681
1.686
1.681
1.672
1.667
1.672
1.662
1.642
1.642
1.647
1.637
1.618
1.613
1.623
1.623
1.608
1.608
1.618
1.618
1.613
1.613
1.623
1.628
1.618
1.608
1.618
1.632
1.628
1.623
1.623
1.632
1.628
1.613
1.618
1.628
1.618
1.603
1.598
1.608
1.618
1.613
1.632
1.676
1.725
1.774
1.828
1.891
1.955
1.994
2.023
2.058
2.063
2.038
1.994
1.94
1.877
1.784
1.686
1.613
1.559
1.52
1.496
1.5
1.53
1.559
1.579
1.613
1.647
1.662
1.652
1.637
1.632
1.628
1.608
1.598
1.613
1.623
1.628
1.628
1.632
1.642
1.637
1.623
1.628
1.637
1.632
1.628
1.628
1.642
1.647
1.637
1.642
1.652
1.652
1.642
1.632
1.632
1.637
1.628
1.618
1.632
1.642
1.637
1.632
1.637
1.652
1.652
1.642
1.647
1.667
1.667
1.667
1.667
1.681
1.686
1.667
1.667
1.681
1.686
1.681
1.686
1.701
1.711
1.701
1.696
1.711
1.72
1.72
1.72
1.725
1.735
1.735
1.73
1.745
1.764
1.769
1.764
1.76
1.774
1.774
1.76
1.76
1.779
1.784
1.779
1.784
1.794
1.808
1.804
1.799
1.813
1.823
1.823
1.813
1.818
1.833
1.828
1.813
1.818
1.828
1.833
1.833
1.838
1.852
1.852
1.843
1.838
1.848
1.852
1.838
1.823
1.813
1.808
1.789
1.774
1.779
1.774
1.755
1.73
1.72
1.716
1.696
1.672
1.672
1.676
1.672
1.657
1.647
1.652
1.647
1.628
1.623
1.628
1.623
1.618
1.608
1.613
1.618
1.603
1.593
1.598
1.603
1.598
1.593
1.603
1.618
1.613
1.603
1.613
1.623
1.628
1.623
1.623
1.632
1.632
1.613
1.618
1.632
1.632
1.628
1.623
1.628
1.637
1.623
1.608
1.613
1.618
1.613
1.608
1.613
1.628
1.628
1.618
1.632
1.647
1.642
1.637
1.632
1.637
1.637
1.623
1.623
1.632
1.637
1.632
1.628
1.637
1.642
1.632
1.628
1.642
1.657
1.652
1.647
1.652
1.662
1.662
1.642
1.652
1.672
1.676
1.672
1.681
1.691
1.696
1.681
1.676
1.686
1.686
1.681
1.681
1.686
1.686
1.667
1.652
1.652
1.647
1.628
1.608
1.603
1.608
1.603
1.603
1.623
1.642
1.642
1.632
1.632
1.637
1.637
1.618
1.608
1.613
1.618
1.613
1.608
1.613
1.618
1.603
1.598
1.613
1.623
1.618
1.608
1.613
1.628
1.628
1.628
1.652
1.691
1.73
1.774
1.838
1.911
1.975
2.019
2.067
2.116
2.136
2.121
2.087
2.038
1.975
1.872
1.774
1.696
1.632
1.574
1.54
1.53
1.554
1.569
1.584
1.613
1.642
1.652
1.642
1.637
1.637
1.632
1.613
1.613
1.632
1.632
1.628
1.623
1.628
1.637
1.623
1.613
1.623
1.628
1.628
1.628
1.637
1.647
1.642
1.623
1.623
1.632
1.628
1.613
1.613
1.628
1.632
1.623
1.628
1.642
1.647
1.642
1.637
1.642
1.652
1.642
1.637
1.652
1.667
1.667
1.662
1.667
1.676
1.672
1.662
1.672
1.686
1.686
1.681
1.681
1.696
1.701
1.686
1.686
1.706
1.711
1.706
1.706
1.716
1.73
1.725
1.72
1.735
1.745
1.745
1.74
1.75
1.764
1.76
1.75
1.764
1.779
1.779
1.774
1.779
1.789
1.794
1.779
1.784
1.808
1.818
1.818
1.823
1.838
1.848
1.838
1.828
1.843
1.848
1.838
1.828
1.833
1.843
1.838
1.823
1.838
1.852
1.852
1.848
1.843
1.848
1.843
1.818
1.808
1.808
1.799
1.784
1.769
1.764
1.76
1.735
1.711
1.716
1.711
1.696
1.681
1.676
1.681
1.672
1.652
1.652
1.657
1.652
1.642
1.637
1.647
1.652
1.637
1.632
1.642
1.642
1.637
1.628
1.632
1.642
1.628
1.618
1.628
1.632
1.632
1.628
1.628
1.632
1.623
1.613
1.623
1.632
1.632
1.628
1.628
1.637
1.642
1.628
1.623
1.637
1.637
1.628
1.628
1.637
1.647
1.637
1.628
1.637
1.642
1.632
1.628
1.632
1.642
1.632
1.623
1.632
1.642
1.642
1.632
1.623
1.628
1.623
1.613
1.608
1.628
1.632
1.637
1.642
1.652
1.662
1.647
1.632
1.637
1.642
1.637
1.632
1.637
1.652
1.662
1.657
1.667
1.681
1.686
1.681
1.681
1.691
1.696
1.681
1.691
1.711
1.716
1.711
1.701
1.701
1.701
1.681
1.672
1.676
1.676
1.667
1.662
1.657
1.657
1.647
1.628
1.628
1.632
1.628
1.618
1.618
1.628
1.628
1.608
1.608
1.623
1.623
1.613
1.608
1.613
1.618
1.603
1.598
1.613
1.623
1.618
1.618
1.623
1.632
1.623
1.618
1.628
1.637
1.642
1.652
1.676
1.725
1.779
1.823
1.891
1.975
2.043
2.102
2.141
2.165
2.17
2.131
2.067
1.999
1.926
1.828
1.73
1.652
1.603
1.564
1.535
1.544
1.574
1.588
1.608
1.623
1.642
1.637
1.618
1.608
1.608
1.603
1.598
1.593
1.598
1.613
1.603
1.603
1.623
1.632
1.632
1.628
1.632
1.637
1.628
1.613
1.618
1.628
1.623
1.618
1.613
1.628
1.628
1.618
1.618
1.628
1.628
1.623
1.618
1.628
1.637
1.632
1.623
1.637
1.647
1.642
1.642
1.647
1.662
1.662
1.647
1.657
1.672
1.672
1.667
1.667
1.672
1.676
1.657
1.657
1.676
1.686
1.681
1.681
1.696
1.711
1.706
1.701
1.711
1.72
1.72
1.716
1.725
1.74
1.74
1.735
1.75
1.764
1.769
1.769
1.774
1.789
1.794
1.779
1.779
1.799
1.804
1.808
1.804
1.813
1.818
1.804
1.799
1.813
1.823
1.818
1.813
1.818
1.833
1.833
1.818
1.828
1.843
1.843
1.838
1.838
1.848
1.848
1.833
1.833
1.848
1.848
1.833
1.818
1.813
1.813
1.789
1.769
1.769
1.764
1.745
1.73
1.72
1.716
1.696
1.672
1.667
1.667
1.657
1.647
1.637
1.642
1.642
1.623
1.613
1.623
1.618
1.608
1.603
1.608
1.618
1.613
1.608
1.623
1.632
1.628
1.618
1.623
1.628
1.618
1.598
1.603
1.613
1.613
1.613
1.613
1.623
1.628
1.608
1.608
1.618
1.618
1.608
1.603
1.613
1.623
1.613
1.613
1.628
1.637
1.632
1.628
1.623
1.628
1.618
1.608
1.613
1.628
1.628
1.623
1.618
1.628
1.628
1.613
1.613
1.623
1.623
1.613
1.608
1.613
1.623
1.603
1.593
1.603
1.608
1.608
1.603
1.613
1.623
1.623
1.608
1.613
1.628
1.623
1.618
1.613
1.623
1.618
1.598
1.598
1.613
1.618
1.618
1.623
1.632
1.642
1.632
1.623
1.628
1.623
1.608
1.598
1.593
1.598
1.593
1.584
1.598
1.618
1.628
1.623
1.618
1.628
1.628
1.618
1.618
1.628
1.628
1.618
1.618
1.628
1.632
1.618
1.613
1.628
1.642
1.637
1.632
1.637
1.652
1.647
1.628
1.637
1.647
1.652
1.647
1.652
1.667
1.672
1.662
1.667
1.691
1.701
1.701
1.701
1.711
1.716
1.701
1.691
1.691
1.696
1.686
1.681
1.676
1.681
1.672
1.647
1.647
1.652
1.642
1.628
1.628
1.632
1.632
1.618
1.618
1.628
1.628
1.623
1.618
1.632
1.642
1.637
1.632
1.642
1.647
1.642
1.632
1.623
1.628
1.623
1.608
1.608
1.623
1.623
1.628
1.647
1.686
1.725
1.76
1.818
1.896
1.97
2.023
2.077
2.126
2.16
2.155
2.131
2.102
2.048
1.96
1.862
1.769
1.691
1.613
1.549
1.53
1.54
1.554
1.574
1.598
1.632
1.647
1.632
1.632
1.637
1.637
1.628
1.623
1.628
1.632
1.618
1.608
1.618
1.628
1.623
1.613
1.618
1.628
1.623
1.613
1.618
1.628
1.623
1.618
1.623
1.632
1.642
1.632
1.637
1.647
1.647
1.637
1.632
1.637
1.642
1.637
1.632
1.647
1.662
1.657
1.652
1.657
1.662
1.662
1.647
1.657
1.672
1.672
1.672
1.672
1.686
1.686
1.667
1.667
1.676
1.676
1.676
1.676
1.696
1.711
1.701
1.691
1.701
1.706
1.706
1.706
1.716
1.73
1.73
1.725
1.74
1.76
1.76
1.755
1.755
1.76
1.76
1.75
1.755
1.774
1.789
1.789
1.784
1.794
1.799
1.789
1.784
1.794
1.808
1.808
1.804
1.808
1.823
1.823
1.813
1.823
1.833
1.828
1.818
1.818
1.828
1.833
1.818
1.818
1.833
1.833
1.818
1.813
1.818
1.823
1.804
1.794
1.799
1.794
1.779
1.76
1.75
1.745
1.735
1.711
1.711
1.711
1.701
1.691
1.686
1.691
1.681
1.657
1.647
1.662
1.667
1.657
1.647
1.647
1.652
1.632
1.623
1.632
1.637
1.632
1.628
1.632
1.642
1.637
1.623
1.623
1.632
1.628
1.618
1.618
1.623
1.623
1.608
1.608
1.628
1.632
1.623
1.618
1.618
1.623
1.608
1.598
1.608
1.618
1.618
1.618
1.623
1.632
1.632
1.618
1.628
1.637
1.632
1.628
1.632
1.642
1.642
1.628
1.628
1.637
1.642
1.632
1.623
1.623
1.623
1.608
1.603
1.608
1.613
1.608
1.603
1.608
1.623
1.623
1.613
1.618
1.632
1.623
1.613
1.608
1.613
1.618
1.598
1.598
1.608
1.613
1.613
1.613
1.623
1.628
1.618
1.618
1.628
1.632
1.628
1.618
1.628
1.637
1.628
1.618
1.628
1.642
1.647
1.647
1.642
1.652
1.647
1.628
1.632
1.652
1.657
1.657
1.657
1.672
1.691
1.686
1.686
1.696
1.706
1.701
1.696
1.696
1.701
1.691
1.672
1.672
1.672
1.662
1.647
1.637
1.637
1.632
1.618
1.618
1.632
1.637
1.628
1.623
1.628
1.637
1.618
1.608
1.613
1.623
1.618
1.613
1.623
1.632
1.628
1.618
1.628
1.637
1.632
1.623
1.618
1.623
1.618
1.598
1.593
1.603
1.618
1.632
1.662
1.711
1.774
1.813
1.867
1.935
1.999
2.043
2.067
2.082
2.082
2.053
1.994
1.935
1.862
1.774
1.681
1.613
1.569
1.54
1.515
1.53
1.564
1.593
1.618
1.637
1.652
1.662
1.642
1.628
1.628
1.623
1.613
1.608
1.613
1.628
1.628
1.623
1.632
1.647
1.642
1.632
1.628
1.632
1.632
1.618
1.618
1.637
1.647
1.652
1.652
1.657
1.667
1.652
1.642
1.647
1.647
1.647
1.642
1.647
1.662
1.657
1.642
1.647
1.657
1.657
1.652
1.647
1.657
1.662
1.647
1.652
1.667
1.681
1.681
1.686
1.696
1.706
1.691
1.686
1.696
1.706
1.701
1.691
1.696
1.711
1.711
1.696
1.706
1.72
1.72
1.716
1.72
1.735
1.74
1.73
1.73
1.745
1.75
1.75
1.755
1.764
1.779
1.774
1.774
1.789
1.799
1.799
1.789
1.794
1.804
1.799
1.789
1.799
1.808
1.813
1.808
1.808
1.818
1.818
1.799
1.799
1.813
1.813
1.804
1.804
1.818
1.828
1.818
1.813
1.823
1.823
1.813
1.804
1.794
1.794
1.784
1.76
1.76
1.76
1.745
1.725
1.716
1.711
1.701
1.672
1.657
1.662
1.662
1.652
1.647
1.652
1.652
1.632
1.623
1.632
1.637
1.628
1.623
1.628
1.637
1.628
1.613
1.618
1.632
1.628
1.623
1.623
1.632
1.632
1.623
1.618
1.628
1.628
1.623
1.618
1.628
1.632
1.618
1.613
1.618
1.623
1.618
1.613
1.613
1.628
1.623
1.613
1.623
1.637
1.632
1.628
1.623
1.628
1.632
1.618
1.628
1.642
1.652
1.647
1.637
1.637
1.642
1.623
1.608
1.613
1.618
1.613
1.608
1.613
1.628
1.623
1.613
1.623
1.637
1.637
1.632
1.632
1.642
1.642
1.628
1.623
1.637
1.637
1.632
1.628
1.637
1.647
1.642
1.632
1.647
1.652
1.647
1.647
1.657
1.681
1.686
1.681
1.691
1.706
1.711
1.706
1.701
1.706
1.706
1.686
1.686
1.691
1.686
1.672
1.657
1.657
1.652
1.632
1.618
1.628
1.632
1.623
1.618
1.618
1.623
1.613
1.593
1.598
1.618
1.618
1.618
1.618
1.632
1.637
1.623
1.623
1.632
1.637
1.623
1.618
1.623
1.628
1.613
1.608
1.618
1.623
1.613
1.613
1.632
1.676
1.716
1.76
1.823
1.896
1.955
2.004
2.048
2.087
2.097
2.072
2.043
2.004
1.935
1.848
1.75
1.672
1.608
1.54
1.5
1.505
1.53
1.554
1.579
1.608
1.632
1.632
1.618
1.623
1.628
1.623
1.618
1.613
1.623
1.628
1.613
1.618
1.628
1.632
1.623
1.623
1.632
1.647
1.637
1.632
1.642
1.647
1.637
1.628
1.632
1.637
1.628
1.608
1.613
1.632
1.637
1.632
1.637
1.652
1.662
1.647
1.647
1.662
1.657
1.647
1.647
1.652
1.662
1.647
1.642
1.652
1.657
1.652
1.647
1.657
1.676
1.676
1.672
1.686
1.701
1.706
1.706
1.711
1.72
1.716
1.701
1.701
1.716
1.72
1.72
1.716
1.725
1.73
1.72
1.716
1.735
1.75
1.755
1.755
1.769
1.784
1.784
1.774
1.779
1.789
1.784
1.779
1.784
1.799
1.808
1.799
1.813
1.838
1.843
1.838
1.828
1.828
1.838
1.823
1.823
1.838
1.848
1.848
1.843
1.848
1.857
1.852
1.838
1.843
1.848
1.833
1.823
1.813
1.813
1.804
1.779
1.764
1.769
1.755
1.745
1.73
1.73
1.725
1.706
1.681
1.681
1.676
1.662
1.647
1.647
1.652
1.642
1.628
1.637
1.647
1.647
1.637
1.632
1.632
1.632
1.613
1.608
1.618
1.623
1.613
1.613
1.623
1.632
1.628
1.623
1.628
1.637
1.632
1.618
1.623
1.632
1.632
1.618
1.632
1.647
1.642
1.628
1.618
1.623
1.618
1.598
1.593
1.608
1.613
1.613
1.618
1.628
1.637
1.618
1.608
1.613
1.618
1.613
1.613
1.618
1.628
1.628
1.608
1.618
1.632
1.637
1.628
1.628
1.632
1.628
1.608
1.603
1.613
1.613
1.608
1.608
1.623
1.637
1.632
1.628
1.632
1.637
1.628
1.618
1.613
1.623
1.618
1.608
1.618
1.632
1.632
1.632
1.632
1.637
1.637
1.623
1.623
1.637
1.642
1.637
1.632
1.642
1.647
1.637
1.632
1.647
1.657
1.657
1.652
1.662
1.672
1.672
1.662
1.672
1.686
1.691
1.686
1.686
1.701
1.706
1.686
1.691
1.711
1.711
1.696
1.681
1.681
1.676
1.657
1.642
1.647
1.642
1.632
1.623
1.623
1.632
1.628
1.618
1.623
1.632
1.623
1.613
1.608
1.618
1.618
1.608
1.613
1.632
1.637
1.632
1.628
1.637
1.637
1.623
1.608
1.608
1.613
1.608
1.608
1.628
1.657
1.681
1.711
1.769
1.848
1.916
1.979
2.043
2.102
2.141
2.141
2.136
2.126
2.077
2.004
1.916
1.828
1.74
1.647
1.579
1.559
1.549
1.544
1.554
1.584
1.618
1.628
1.623
1.632
1.637
1.628
1.613
1.603
1.613
1.618
1.608
1.613
1.628
1.632
1.628
1.623
1.628
1.632
1.623
1.613
1.623
1.623
1.618
1.613
1.613
1.623
1.618
1.608
1.623
1.637
1.642
1.642
1.647
1.652
1.657
1.642
1.642
1.652
1.657
1.642
1.637
1.647
1.662
1.652
1.642
1.647
1.657
1.652
1.652
1.657
1.667
1.662
1.647
1.657
1.672
1.676
1.672
1.672
1.686
1.691
1.681
1.691
1.711
1.716
1.716
1.716
1.725
1.74
1.73
1.725
1.735
1.74
1.735
1.73
1.74
1.76
1.76
1.76
1.779
1.799
1.804
1.804
1.808
1.818
1.818
1.799
1.799
1.813
1.823
1.823
1.823
1.833
1.838
1.828
1.828
1.843
1.852
1.848
1.843
1.852
1.862
1.857
1.843
1.848
1.852
1.843
1.833
1.828
1.833
1.833
1.813
1.804
1.813
1.808
1.789
1.774
1.764
1.755
1.73
1.716
1.716
1.716
1.706
1.691
1.686
1.686
1.672
1.652
1.652
1.657
1.647
1.632
1.632
1.642
1.642
1.623
1.628
1.642
1.642
1.637
1.628
1.628
1.632
1.618
1.603
1.613
1.623
1.618
1.613
1.618
1.637
1.632
1.628
1.632
1.642
1.637
1.632
1.632
1.637
1.637
1.618
1.608
1.623
1.628
1.628
1.623
1.632
1.642
1.632
1.628
1.632
1.632
1.623
1.613
1.618
1.632
1.628
1.613
1.618
1.628
1.623
1.613
1.608
1.618
1.618
1.603
1.608
1.628
1.632
1.628
1.623
1.632
1.637
1.623
1.618
1.628
1.637
1.632
1.628
1.628
1.637
1.628
1.618
1.628
1.632
1.632
1.628
1.623
1.628
1.628
1.613
1.618
1.632
1.637
1.628
1.623
1.623
1.628
1.623
1.613
1.628
1.637
1.637
1.637
1.647
1.657
1.647
1.632
1.632
1.642
1.637
1.632
1.632
1.647
1.647
1.632
1.642
1.662
1.676
1.676
1.686
1.701
1.72
1.716
1.711
1.72
1.725
1.716
1.701
1.696
1.696
1.676
1.657
1.652
1.657
1.652
1.642
1.637
1.647
1.647
1.628
1.628
1.637
1.637
1.628
1.623
1.632
1.642
1.632
1.628
1.637
1.642
1.632
1.628
1.632
1.637
1.628
1.613
1.618
1.623
1.623
1.613
1.608
1.613
1.613
1.608
1.623
1.657
1.696
1.73
1.779
1.843
1.916
1.965
2.023
2.087
2.131
2.151
2.146
2.131
2.097
2.023
1.931
1.843
1.764
1.676
1.603
1.559
1.549
1.554
1.554
1.579
1.618
1.642
1.647
1.652
1.652
1.652
1.632
1.613
1.618
1.623
1.618
1.618
1.623
1.628
1.618
1.608
1.613
1.628
1.628
1.628
1.632
1.647
1.647
1.632
1.637
1.647
1.647
1.637
1.623
1.628
1.637
1.632
1.632
1.647
1.652
1.642
1.632
1.632
1.637
1.632
1.623
1.632
1.647
1.652
1.657
1.667
1.681
1.686
1.667
1.667
1.672
1.676
1.672
1.667
1.681
1.691
1.686
1.681
1.696
1.706
1.701
1.696
1.706
1.72
1.716
1.711
1.725
1.74
1.74
1.74
1.74
1.75
1.755
1.745
1.745
1.76
1.764
1.76
1.75
1.76
1.764
1.755
1.755
1.769
1.784
1.789
1.789
1.804
1.818
1.813
1.799
1.808
1.813
1.808
1.804
1.804
1.818
1.823
1.813
1.823
1.838
1.848
1.838
1.838
1.843
1.843
1.823
1.808
1.813
1.813
1.808
1.799
1.789
1.789
1.774
1.75
1.745
1.75
1.735
1.72
1.706
1.711
1.701
1.676
1.672
1.676
1.672
1.657
1.647
1.652
1.652
1.632
1.623
1.628
1.632
1.623
1.613
1.618
1.628
1.623
1.613
1.623
1.637
1.637
1.632
1.628
1.637
1.637
1.623
1.618
1.632
1.632
1.628
1.628
1.632
1.637
1.623
1.618
1.628
1.637
1.632
1.623
1.623
1.632
1.623
1.608
1.618
1.628
1.623
1.618
1.618
1.632
1.637
1.623
1.623
1.637
1.637
1.628
1.623
1.628
1.637
1.623
1.613
1.623
1.628
1.623
1.613
1.618
1.628
1.623
1.618
1.628
1.642
1.642
1.632
1.628
1.632
1.632
1.618
1.618
1.637
1.642
1.637
1.637
1.647
1.657
1.642
1.628
1.632
1.637
1.632
1.628
1.637
1.652
1.647
1.637
1.647
1.662
1.662
1.657
1.662
1.681
1.686
1.676
1.691
1.706
1.711
1.706
1.701
1.706
1.706
1.691
1.686
1.691
1.696
1.681
1.672
1.667
1.672
1.657
1.637
1.642
1.647
1.642
1.637
1.632
1.637
1.637
1.623
1.618
1.632
1.637
1.632
1.628
1.637
1.637
1.623
1.613
1.623
1.628
1.618
1.613
1.618
1.628
1.623
1.608
1.613
1.623
1.623
1.618
1.623
1.642
1.667
1.686
1.735
1.804
1.867
1.921
1.975
2.033
2.077
2.092
2.087
2.077
2.043
1.975
1.891
1.808
1.73
1.647
1.574
1.54
1.53
1.53
1.54
1.564
1.603
1.632
1.632
1.642
1.657
1.652
1.632
1.613
1.613
1.618
1.603
1.603
1.618
1.637
1.642
1.642
1.652
1.662
1.652
1.628
1.628
1.632
1.623
1.613
1.613
1.623
1.628
1.618
1.628
1.642
1.647
1.642
1.637
1.647
1.662
1.652
1.652
1.667
1.672
1.667
1.662
1.657
1.672
1.662
1.652
1.657
1.672
1.667
1.667
1.672
1.686
1.691
1.672
1.672
1.681
1.681
1.676
1.672
1.686
1.701
1.696
1.696
1.716
1.73
1.73
1.73
1.74
1.75
1.74
1.725
1.74
1.75
1.75
1.74
1.745
1.76
1.764
1.76
1.764
1.789
1.799
1.799
1.799
1.808
1.818
1.799
1.794
1.804
1.813
1.808
1.804
1.804
1.818
1.818
1.813
1.818
1.828
1.823
1.818
1.818
1.833
1.833
1.818
1.818
1.833
1.838
1.828
1.818
1.818
1.818
1.794
1.779
1.779
1.774
1.755
1.735
1.73
1.73
1.711
1.691
1.691
1.696
1.691
1.676
1.667
1.672
1.662
1.647
1.647
1.657
1.657
1.652
1.642
1.642
1.642
1.623
1.613
1.623
1.628
1.628
1.623
1.628
1.637
1.632
1.618
1.618
1.628
1.623
1.618
1.618
1.632
1.637
1.628
1.628
1.642
1.647
1.632
1.628
1.632
1.642
1.628
1.623
1.628
1.632
1.628
1.623
1.623
1.623
1.618
1.603
1.613
1.628
1.628
1.628
1.632
1.647
1.647
1.632
1.632
1.642
1.642
1.637
1.632
1.637
1.642
1.628
1.618
1.628
1.632
1.628
1.628
1.632
1.642
1.637
1.628
1.637
1.652
1.647
1.637
1.628
1.637
1.642
1.637
1.647
1.667
1.672
1.672
1.672
1.676
1.681
1.667
1.657
1.667
1.681
1.681
1.681
1.696
1.711
1.711
1.701
1.711
1.716
1.711
1.701
1.696
1.696
1.681
1.657
1.647
1.647
1.642
1.632
1.623
1.632
1.637
1.628
1.623
1.637
1.642
1.637
1.632
1.632
1.637
1.623
1.608
1.613
1.623
1.623
1.618
1.623
1.637
1.642
1.628
1.628
1.632
1.628
1.613
1.598
1.598
1.603
1.598
1.608
1.647
1.691
1.74
1.794
1.862
1.935
1.989
2.038
2.092
2.136
2.136
2.111
2.072
2.019
1.935
1.823
1.73
1.657
1.588
1.54
1.515
1.525
1.554
1.569
1.593
1.637
1.662
1.667
1.657
1.652
1.647
1.632
1.618
1.623
1.637
1.632
1.623
1.623
1.628
1.623
1.603
1.603
1.613
1.613
1.608
1.608
1.618
1.628
1.618
1.618
1.632
1.642
1.642
1.637
1.642
1.652
1.642
1.623
1.628
1.642
1.647
1.642
1.642
1.662
1.667
1.657
1.662
1.676
1.676
1.672
1.667
1.672
1.681
1.672
1.662
1.676
1.681
1.676
1.672
1.681
1.696
1.691
1.681
1.691
1.706
1.706
1.701
1.701
1.711
1.716
1.706
1.711
1.725
1.725
1.72
1.72
1.735
1.75
1.745
1.75
1.769
1.779
1.779
1.774
1.779
1.789
1.784
1.779
1.794
1.813
1.818
1.818
1.823
1.833
1.833
1.823
1.828
1.838
1.848
1.843
1.838
1.848
1.852
1.838
1.833
1.843
1.848
1.843
1.833
1.833
1.833
1.818
1.799
1.804
1.813
1.799
1.779
1.764
1.764
1.755
1.73
1.72
1.72
1.711
1.696
1.681
1.681
1.681
1.662
1.652
1.652
1.652
1.642
1.632
1.632
1.637
1.632
1.618
1.628
1.637
1.632
1.628
1.628
1.642
1.637
1.618
1.613
1.618
1.623
1.623
1.618
1.623
1.632
1.618
1.618
1.628
1.637
1.632
1.628
1.628
1.637
1.628
1.618
1.623
1.628
1.623
1.618
1.613
1.623
1.623
1.608
1.618
1.632
1.637
1.632
1.632
1.637
1.647
1.628
1.613
1.618
1.623
1.613
1.603
1.608
1.618
1.613
1.608
1.618
1.628
1.632
1.623
1.628
1.632
1.632
1.618
1.618
1.628
1.628
1.618
1.613
1.623
1.628
1.613
1.608
1.628
1.642
1.642
1.637
1.642
1.652
1.642
1.628
1.637
1.652
1.647
1.637
1.637
1.647
1.647
1.632
1.637
1.652
1.652
1.652
1.652
1.667
1.681
1.672
1.672
1.686
1.696
1.696
1.691
1.696
1.706
1.696
1.676
1.681
1.686
1.681
1.672
1.672
1.676
1.672
1.652
1.652
1.657
1.652
1.637
1.628
1.632
1.637
1.623
1.613
1.618
1.623
1.623
1.623
1.632
1.642
1.632
1.623
1.632
1.642
1.637
1.628
1.618
1.623
1.618
1.603
1.603
1.618
1.618
1.608
1.603
1.613
1.632
1.642
1.667
1.72
1.784
1.838
1.906
1.975
2.048
2.092
2.121
2.151
2.16
2.141
2.087
2.019
1.94
1.848
1.735
1.647
1.593
1.554
1.53
1.53
1.554
1.588
1.603
1.623
1.652
1.662
1.652
1.632
1.632
1.632
1.618
1.603
1.603
1.608
1.603
1.603
1.603
1.623
1.623
1.613
1.618
1.628
1.628
1.618
1.608
1.613
1.613
1.603
1.598
1.618
1.628
1.628
1.628
1.637
1.652
1.647
1.632
1.632
1.632
1.623
1.618
1.623
1.637
1.647
1.637
1.647
1.667
1.676
1.676
1.672
1.676
1.676
1.657
1.657
1.676
1.686
1.681
1.676
1.681
1.696
1.696
1.686
1.691
1.696
1.696
1.696
1.696
1.711
1.716
1.706
1.716
1.735
1.74
1.74
1.74
1.745
1.75
1.735
1.735
1.755
1.769
1.774
1.774
1.784
1.799
1.794
1.784
1.794
1.808
1.808
1.808
1.813
1.828
1.833
1.818
1.823
1.838
1.848
1.843
1.833
1.838
1.843
1.833
1.828
1.838
1.843
1.833
1.823
1.823
1.828
1.818
1.799
1.799
1.804
1.789
1.779
1.769
1.769
1.75
1.725
1.716
1.716
1.701
1.681
1.667
1.672
1.672
1.657
1.647
1.657
1.657
1.647
1.637
1.632
1.637
1.628
1.613
1.623
1.632
1.637
1.632
1.632
1.637
1.637
1.618
1.623
1.637
1.637
1.632
1.628
1.632
1.642
1.628
1.618
1.623
1.623
1.618
1.613
1.618
1.628
1.623
1.613
1.623
1.628
1.623
1.613
1.608
1.623
1.623
1.603
1.603
1.623
1.628
1.623
1.628
1.637
1.642
1.628
1.623
1.628
1.632
1.623
1.618
1.623
1.632
1.623
1.613
1.618
1.632
1.628
1.618
1.618
1.628
1.628
1.608
1.608
1.618
1.623
1.613
1.608
1.613
1.613
1.603
1.603
1.618
1.628
1.632
1.623
1.618
1.623
1.613
1.593
1.603
1.618
1.623
1.623
1.628
1.642
1.652
1.637
1.632
1.637
1.632
1.623
1.613
1.623
1.637
1.628
1.628
1.637
1.647
1.642
1.637
1.647
1.667
1.662
1.657
1.667
1.681
1.681
1.681
1.686
1.696
1.696
1.681
1.681
1.691
1.691
1.686
1.681
1.686
1.691
1.667
1.657
1.667
1.676
1.667
1.657
1.657
1.657
1.642
1.628
1.632
1.637
1.637
1.628
1.623
1.628
1.628
1.613
1.618
1.632
1.632
1.628
1.618
1.623
1.628
1.613
1.608
1.618
1.628
1.618
1.618
1.618
1.623
1.613
1.608
1.628
1.657
1.686
1.725
1.784
1.857
1.926
1.979
2.048
2.121
2.165
2.18
2.175
2.151
2.102
2.009
1.911
1.823
1.725
1.637
1.569
1.54
1.54
1.54
1.554
1.593
1.628
1.642
1.642
1.647
1.652
1.642
1.613
1.603
1.613
1.613
1.608
1.608
1.618
1.623
1.608
1.608
1.623
1.628
1.623
1.618
1.618
1.623
1.618
1.603
1.613
1.628
1.628
1.623
1.628
1.637
1.642
1.628
1.637
1.652
1.652
1.642
1.637
1.642
1.647
1.637
1.632
1.647
1.652
1.652
1.652
1.662
1.672
1.662
1.652
1.662
1.676
1.676
1.676
1.681
1.691
1.691
1.672
1.672
1.686
1.686
1.681
1.681
1.696
1.706
1.701
1.696
1.706
1.716
1.711
1.711
1.716
1.73
1.73
1.73
1.75
1.769
1.779
1.774
1.779
1.789
1.789
1.774
1.774
1.784
1.789
1.784
1.784
1.804
1.818
1.808
1.808
1.823
1.833
1.828
1.818
1.823
1.828
1.818
1.804
1.813
1.828
1.833
1.833
1.838
1.843
1.843
1.823
1.818
1.828
1.823
1.808
1.794
1.789
1.784
1.76
1.745
1.75
1.75
1.74
1.725
1.725
1.73
1.711
1.686
1.686
1.686
1.672
1.652
1.647
1.652
1.652
1.637
1.637
1.652
1.647
1.632
1.623
1.623
1.628
1.613
1.608
1.623
1.628
1.623
1.618
1.623
1.637
1.628
1.613
1.618
1.632
1.632
1.632
1.632
1.642
1.642
1.628
1.632
1.637
1.632
1.623
1.618
1.623
1.623
1.608
1.603
1.618
1.623
1.618
1.613
1.618
1.632
1.623
1.613
1.628
1.637
1.632
1.623
1.623
1.628
1.628
1.618
1.623
1.637
1.642
1.632
1.623
1.623
1.618
1.598
1.584
1.598
1.603
1.603
1.603
1.618
1.632
1.632
1.628
1.637
1.652
1.652
1.647
1.642
1.647
1.642
1.628
1.628
1.632
1.632
1.632
1.637
1.647
1.662
1.652
1.647
1.657
1.662
1.657
1.652
1.667
1.676
1.672
1.672
1.686
1.701
1.701
1.696
1.696
1.706
1.706
1.686
1.686
1.696
1.691
1.676
1.667
1.672
1.672
1.647
1.637
1.642
1.642
1.637
1.623
1.618
1.628
1.618
1.613
1.623
1.637
1.632
1.628
1.632
1.637
1.628
1.608
1.608
1.613
1.618
1.618
1.623
1.637
1.642
1.628
1.623
1.632
1.632
1.623
1.618
1.632
1.657
1.676
1.711
1.774
1.848
1.911
1.97
2.019
2.067
2.087
2.072
2.058
2.028
1.97
1.882
1.794
1.72
1.647
1.574
1.53
1.52
1.525
1.53
1.549
1.579
1.613
1.628
1.628
1.632
1.632
1.623
1.613
1.613
1.623
1.628
1.618
1.628
1.647
1.647
1.642
1.642
1.647
1.647
1.628
1.623
1.637
1.642
1.637
1.632
1.637
1.642
1.637
1.623
1.632
1.642
1.637
1.628
1.628
1.632
1.628
1.618
1.623
1.637
1.637
1.632
1.637
1.647
1.657
1.647
1.647
1.667
1.672
1.672
1.662
1.672
1.681
1.672
1.657
1.667
1.681
1.681
1.676
1.681
1.696
1.701
1.691
1.701
1.716
1.72
1.72
1.725
1.74
1.745
1.735
1.73
1.745
1.755
1.75
1.745
1.755
1.769
1.76
1.755
1.764
1.774
1.769
1.764
1.769
1.784
1.784
1.769
1.779
1.794
1.794
1.794
1.794
1.808
1.818
1.813
1.813
1.833
1.843
1.843
1.838
1.843
1.843
1.828
1.808
1.808
1.813
1.808
1.799
1.799
1.808
1.804
1.779
1.774
1.774
1.76
1.735
1.716
1.716
1.711
1.696
1.691
1.701
1.701
1.686
1.676
1.672
1.667
1.647
1.628
1.628
1.632
1.632
1.623
1.618
1.623
1.613
1.598
1.598
1.608
1.608
1.608
1.613
1.628
1.637
1.623
1.623
1.632
1.632
1.623
1.613
1.618
1.628
1.618
1.613
1.623
1.632
1.632
1.628
1.628
1.632
1.628
1.613
1.618
1.632
1.642
1.637
1.637
1.642
1.647
1.623
1.613
1.618
1.618
1.608
1.603
1.608
1.623
1.618
1.608
1.618
1.628
1.623
1.613
1.618
1.628
1.628
1.613
1.618
1.628
1.623
1.618
1.613
1.623
1.632
1.618
1.623
1.637
1.647
1.647
1.642
1.647
1.657
1.652
1.642
1.652
1.672
1.672
1.672
1.676
1.691
1.696
1.686
1.691
1.701
1.701
1.691
1.686
1.696
1.696
1.676
1.662
1.667
1.662
1.642
1.623
1.618
1.623
1.603
1.588
1.603
1.618
1.618
1.618
1.618
1.623
1.623
1.608
1.608
1.618
1.618
1.613
1.613
1.618
1.623
1.613
1.608
1.618
1.623
1.613
1.608
1.608
1.618
1.608
1.598
1.608
1.628
1.637
1.652
1.686
1.735
1.779
1.823
1.882
1.95
2.004
2.038
2.063
2.077
2.067
2.014
1.95
1.887
1.808
1.711
1.623
1.564
1.535
1.51
1.5
1.525
1.559
1.593
1.613
1.637
1.657
1.657
1.632
1.628
1.632
1.628
1.618
1.613
1.623
1.628
1.613
1.613
1.628
1.632
1.628
1.623
1.623
1.628
1.618
1.603
1.613
1.623
1.623
1.618
1.628
1.642
1.642
1.628
1.632
1.642
1.642
1.632
1.628
1.632
1.642
1.628
1.623
1.642
1.647
1.652
1.652
1.667
1.676
1.667
1.652
1.657
1.667
1.662
1.657
1.657
1.667
1.672
1.667
1.681
1.701
1.701
1.696
1.691
1.691
1.696
1.681
1.681
1.701
1.716
1.716
1.72
1.73
1.745
1.74
1.735
1.74
1.75
1.75
1.75
1.755
1.774
1.774
1.769
1.774
1.789
1.789
1.784
1.784
1.794
1.808
1.804
1.804
1.828
1.838
1.838
1.833
1.838
1.848
1.838
1.823
1.833
1.843
1.838
1.833
1.833
1.843
1.838
1.818
1.818
1.823
1.818
1.808
1.794
1.794
1.784
1.76
1.745
1.745
1.745
1.73
1.72
1.711
1.711
1.691
1.672
1.676
1.681
1.672
1.657
1.652
1.657
1.647
1.628
1.628
1.632
1.632
1.632
1.628
1.637
1.637
1.623
1.618
1.623
1.628
1.623
1.623
1.632
1.642
1.637
1.628
1.637
1.647
1.637
1.628
1.628
1.632
1.632
1.623
1.628
1.642
1.647
1.637
1.632
1.628
1.628
1.608
1.603
1.618
1.623
1.623
1.623
1.637
1.647
1.637
1.623
1.628
1.632
1.623
1.613
1.613
1.628
1.628
1.618
1.618
1.632
1.628
1.618
1.613
1.623
1.628
1.618
1.618
1.637
1.647
1.647
1.642
1.647
1.652
1.642
1.632
1.637
1.652
1.647
1.642
1.642
1.652
1.647
1.628
1.632
1.647
1.657
1.657
1.662
1.676
1.691
1.686
1.686
1.706
1.716
1.706
1.701
1.701
1.706
1.696
1.676
1.681
1.681
1.667
1.657
1.657
1.662
1.652
1.628
1.628
1.632
1.628
1.618
1.618
1.623
1.623
1.608
1.608
1.618
1.628
1.618
1.618
1.623
1.628
1.618
1.603
1.608
1.613
1.603
1.593
1.593
1.603
1.598
1.584
1.588
1.603
1.608
1.613
1.632
1.672
1.72
1.76
1.823
1.901
1.97
2.028
2.072
2.116
2.146
2.136
2.102
2.063
1.999
1.906
1.804
1.706
1.632
1.574
1.52
1.51
1.535
1.559
1.584
1.608
1.637
1.647
1.632
1.623
1.628
1.623
1.608
1.603
1.603
1.613
1.608
1.598
1.608
1.618
1.613
1.603
1.608
1.618
1.618
1.603
1.608
1.623
1.623
1.623
1.623
1.637
1.642
1.628
1.628
1.642
1.647
1.642
1.632
1.632
1.642
1.632
1.623
1.632
1.647
1.642
1.642
1.642
1.657
1.657
1.647
1.652
1.667
1.662
1.662
1.657
1.667
1.672
1.657
1.657
1.676
1.681
1.681
1.686
1.701
1.72
1.72
1.716
1.72
1.725
1.72
1.711
1.711
1.72
1.716
1.706
1.716
1.735
1.75
1.755
1.76
1.779
1.789
1.774
1.774
1.789
1.794
1.789
1.784
1.794
1.804
1.799
1.794
1.813
1.828
1.828
1.823
1.823
1.838
1.838
1.823
1.833
1.843
1.848
1.838
1.833
1.838
1.838
1.828
1.833
1.843
1.848
1.838
1.828
1.823
1.823
1.804
1.784
1.784
1.784
1.764
1.75
1.735
1.735
1.716
1.686
1.676
1.676
1.667
1.657
1.657
1.667
1.667
1.652
1.642
1.647
1.642
1.628
1.618
1.623
1.628
1.618
1.613
1.623
1.632
1.628
1.618
1.613
1.618
1.618
1.598
1.603
1.623
1.628
1.623
1.623
1.637
1.642
1.628
1.623
1.632
1.637
1.632
1.628
1.632
1.642
1.628
1.618
1.628
1.632
1.623
1.613
1.608
1.618
1.618
1.603
1.613
1.628
1.632
1.628
1.623
1.628
1.628
1.613
1.608
1.618
1.628
1.623
1.618
1.623
1.632
1.618
1.603
1.613
1.623
1.623
1.623
1.632
1.642
1.647
1.632
1.637
1.647
1.642
1.628
1.623
1.632
1.642
1.632
1.637
1.657
1.667
1.662
1.662
1.672
1.686
1.676
1.672
1.681
1.696
1.696
1.691
1.691
1.701
1.696
1.681
1.686
1.701
1.696
1.691
1.681
1.686
1.676
1.652
1.637
1.642
1.637
1.628
1.618
1.623
1.632
1.623
1.613
1.618
1.628
1.623
1.618
1.618
1.628
1.623
1.608
1.613
1.618
1.618
1.603
1.598
1.603
1.608
1.593
1.598
1.618
1.628
1.623
1.618
1.628
1.637
1.637
1.647
1.686
1.745
1.799
1.857
1.926
2.004
2.063
2.102
2.146
2.175
2.17
2.131
2.082
2.019
1.935
1.828
1.735
1.662
1.593
1.544
1.525
1.535
1.564
1.579
1.598
1.632
1.657
1.657
1.647
1.637
1.632
1.618
1.598
1.598
1.608
1.608
1.603
1.603
1.613
1.623
1.603
1.603
1.613
1.618
1.613
1.613
1.618
1.623
1.608
1.603
1.623
1.642
1.642
1.642
1.642
1.657
1.652
1.637
1.642
1.652
1.642
1.637
1.632
1.642
1.647
1.632
1.632
1.647
1.652
1.647
1.642
1.657
1.667
1.657
1.652
1.662
1.672
1.672
1.667
1.672
1.686
1.686
1.672
1.676
1.696
1.701
1.696
1.701
1.716
1.72
1.711
1.716
1.735
1.745
1.745
1.74
1.755
1.769
1.76
1.755
1.764
1.774
1.769
1.764
1.774
1.789
1.794
1.784
1.789
1.808
1.808
1.804
1.804
1.813
1.813
1.799
1.799
1.813
1.823
1.818
1.818
1.833
1.848
1.838
1.833
1.848
1.857
1.857
1.843
1.833
1.833
1.818
1.794
1.789
1.799
1.789
1.774
1.764
1.769
1.769
1.74
1.725
1.725
1.716
1.701
1.681
1.681
1.681
1.667
1.657
1.667
1.676
1.672
1.662
1.657
1.657
1.647
1.623
1.623
1.628
1.618
1.613
1.613
1.628
1.632
1.623
1.618
1.623
1.628
1.623
1.618
1.628
1.632
1.623
1.613
1.623
1.632
1.623
1.613
1.613
1.623
1.623
1.608
1.618
1.628
1.632
1.623
1.618
1.623
1.623
1.608
1.608
1.618
1.618
1.613
1.613
1.618
1.623
1.613
1.608
1.623
1.632
1.628
1.623
1.628
1.632
1.623
1.608
1.613
1.623
1.618
1.608
1.608
1.618
1.618
1.603
1.603
1.613
1.613
1.603
1.603
1.613
1.628
1.623
1.623
1.632
1.647
1.647
1.642
1.642
1.647
1.642
1.628
1.632
1.647
1.647
1.642
1.642
1.657
1.662
1.652
1.662
1.681
1.691
1.691
1.686
1.691
1.701
1.686
1.681
1.691
1.701
1.701
1.691
1.691
1.696
1.686
1.662
1.657
1.662
1.647
1.628
1.618
1.623
1.628
1.608
1.603
1.613
1.623
1.618
1.618
1.623
1.632
1.618
1.608
1.618
1.623
1.618
1.608
1.603
1.618
1.613
1.603
1.608
1.623
1.618
1.613
1.608
1.618
1.628
1.623
1.642
1.696
1.74
1.794
1.852
1.931
2.004
2.053
2.097
2.146
2.175
2.17
2.141
2.087
2.019
1.916
1.799
1.701
1.623
1.559
1.515
1.505
1.535
1.569
1.584
1.618
1.652
1.667
1.662
1.647
1.637
1.632
1.618
1.608
1.618
1.628
1.618
1.613
1.613
1.618
1.613
1.603
1.608
1.623
1.618
1.613
1.613
1.623
1.628
1.618
1.618
1.628
1.628
1.623
1.618
1.628
1.632
1.623
1.623
1.637
1.647
1.647
1.642
1.647
1.657
1.652
1.637
1.647
1.662
1.667
1.667
1.667
1.681
1.681
1.667
1.667
1.676
1.672
1.667
1.662
1.676
1.691
1.686
1.681
1.696
1.716
1.716
1.706
1.706
1.711
1.711
1.696
1.706
1.725
1.735
1.74
1.745
1.76
1.764
1.75
1.75
1.76
1.769
1.764
1.764
1.774
1.784
1.774
1.764
1.779
1.789
1.784
1.779
1.789
1.808
1.813
1.808
1.818
1.833
1.833
1.823
1.823
1.833
1.833
1.818
1.818
1.833
1.833
1.828
1.818
1.823
1.828
1.808
1.794
1.804
1.808
1.808
1.804
1.799
1.799
1.774
1.745
1.735
1.73
1.711
1.696
1.681
1.686
1.681
1.662
1.657
1.662
1.657
1.642
1.632
1.637
1.637
1.623
1.613
1.623
1.628
1.618
1.613
1.613
1.623
1.618
1.608
1.618
1.632
1.632
1.628
1.628
1.637
1.637
1.618
1.618
1.632
1.632
1.623
1.618
1.623
1.628
1.613
1.608
1.618
1.628
1.628
1.623
1.632
1.647
1.642
1.628
1.632
1.642
1.637
1.623
1.618
1.618
1.618
1.603
1.598
1.613
1.618
1.608
1.603
1.608
1.618
1.608
1.598
1.613
1.623
1.613
1.608
1.608
1.618
1.618
1.603
1.613
1.628
1.632
1.628
1.628
1.642
1.647
1.632
1.628
1.637
1.642
1.637
1.637
1.652
1.672
1.672
1.672
1.691
1.706
1.706
1.701
1.701
1.711
1.706
1.691
1.691
1.696
1.686
1.676
1.667
1.667
1.657
1.628
1.613
1.613
1.603
1.593
1.588
1.598
1.608
1.603
1.603
1.623
1.632
1.632
1.623
1.618
1.628
1.618
1.603
1.608
1.618
1.618
1.608
1.608
1.613
1.613
1.598
1.598
1.613
1.618
1.608
1.608
1.618
1.632
1.637
1.657
1.706
1.764
1.813
1.867
1.935
2.009
2.063
2.087
2.107
2.107
2.072
2.009
1.931
1.848
1.755
1.642
1.569
1.535
1.51
1.505
1.51
1.544
1.579
1.593
1.608
1.628
1.637
1.632
1.618
1.608
1.613
1.603
1.593
1.603
1.618
1.623
1.618
1.623
1.628
1.628
1.613
1.608
1.618
1.618
1.613
1.608
1.613
1.628
1.618
1.618
1.632
1.642
1.642
1.637
1.637
1.647
1.642
1.628
1.642
1.657
1.657
1.652
1.647
1.657
1.657
1.642
1.637
1.647
1.647
1.642
1.642
1.657
1.667
1.657
1.657
1.672
1.681
1.676
1.672
1.676
1.686
1.686
1.681
1.686
1.701
1.701
1.706
1.716
1.735
1.74
1.73
1.73
1.745
1.75
1.745
1.745
1.755
1.769
1.76
1.755
1.769
1.774
1.769
1.76
1.764
1.774
1.774
1.764
1.784
1.804
1.813
1.808
1.808
1.813
1.813
1.794
1.794
1.799
1.804
1.799
1.799
1.813
1.823
1.818
1.808
1.823
1.833
1.828
1.818
1.808
1.804
1.784
1.76
1.76
1.769
1.76
1.75
1.75
1.755
1.745
1.72
1.706
1.706
1.696
1.676
1.662
1.662
1.667
1.657
1.652
1.662
1.667
1.652
1.637
1.628
1.628
1.613
1.598
1.608
1.623
1.623
1.623
1.623
1.632
1.637
1.623
1.618
1.628
1.628
1.623
1.623
1.628
1.637
1.628
1.623
1.632
1.637
1.632
1.623
1.628
1.637
1.632
1.618
1.623
1.632
1.632
1.623
1.623
1.637
1.642
1.628
1.628
1.642
1.647
1.637
1.632
1.642
1.647
1.637
1.628
1.642
1.642
1.637
1.632
1.637
1.647
1.642
1.632
1.647
1.657
1.657
1.647
1.647
1.662
1.667
1.657
1.662
1.676
1.676
1.676
1.676
1.681
1.691
1.681
1.681
1.696
1.706
1.696
1.681
1.672
1.672
1.652
1.628
1.628
1.637
1.632
1.628
1.628
1.632
1.632
1.613
1.608
1.623
1.628
1.628
1.623
1.628
1.637
1.623
1.613
1.623
1.628
1.618
1.613
1.618
1.632
1.628
1.618
1.628
1.632
1.623
1.608
1.598
1.608
1.613
1.613
1.637
1.686
1.735
1.784
1.838
1.901
1.96
1.994
2.023
2.058
2.063
2.038
1.989
1.931
1.867
1.779
1.676
1.608
1.564
1.53
1.51
1.52
1.554
1.579
1.588
1.613
1.637
1.642
1.632
1.618
1.618
1.618
1.608
1.598
1.613
1.618
1.613
1.608
1.618
1.628
1.623
1.613
1.623
1.623
1.618
1.613
1.613
1.628
1.632
1.623
1.632
1.652
1.657
1.657
1.652
1.652
1.657
1.642
1.637
1.647
1.657
1.657
1.647
1.647
1.652
1.642
1.632
1.642
1.657
1.657
1.657
1.657
1.672
1.672
1.657
1.657
1.667
1.672
1.667
1.667
1.681
1.691
1.681
1.681
1.691
1.701
1.696
1.691
1.696
1.711
1.711
1.711
1.725
1.745
1.75
1.75
1.755
1.764
1.764
1.75
1.75
1.764
1.769
1.769
1.769
1.784
1.794
1.784
1.779
1.794
1.804
1.804
1.799
1.808
1.818
1.818
1.804
1.808
1.818
1.818
1.808
1.808
1.823
1.823
1.808
1.813
1.823
1.823
1.808
1.799
1.794
1.794
1.774
1.76
1.764
1.769
1.76
1.745
1.74
1.74
1.725
1.701
1.691
1.691
1.676
1.662
1.647
1.647
1.642
1.628
1.637
1.657
1.662
1.657
1.652
1.657
1.662
1.642
1.628
1.632
1.632
1.623
1.613
1.613
1.623
1.618
1.613
1.623
1.632
1.628
1.623
1.632
1.647
1.652
1.637
1.637
1.647
1.642
1.632
1.623
1.628
1.632
1.623
1.623
1.637
1.647
1.647
1.642
1.642
1.647
1.637
1.628
1.642
1.652
1.657
1.662
1.667
1.676
1.672
1.652
1.642
1.647
1.647
1.642
1.642
1.652
1.662
1.652
1.652
1.667
1.676
1.676
1.672
1.676
1.691
1.686
1.676
1.686
1.696
1.691
1.681
1.681
1.686
1.691
1.681
1.681
1.686
1.676
1.657
1.642
1.637
1.628
1.608
1.598
1.613
1.623
1.618
1.613
1.618
1.632
1.628
1.613
1.623
1.637
1.637
1.632
1.632
1.642
1.642
1.628
1.628
1.637
1.632
1.628
1.623
1.632
1.642
1.628
1.618
1.628
1.632
1.628
1.628
1.652
1.691
1.725
1.764
1.823
1.887
1.935
1.975
1.999
2.023
2.023
1.989
1.955
1.921
1.857
1.789
1.711
1.652
1.603
1.549
1.525
1.54
1.554
1.574
1.593
1.618
1.642
1.647
1.632
1.637
1.642
1.637
1.628
1.623
1.632
1.637
1.628
1.628
1.642
1.642
1.637
1.632
1.637
1.642
1.623
1.618
1.628
1.632
1.628
1.628
1.632
1.642
1.632
1.623
1.637
1.657
1.657
1.657
1.662
1.672
1.672
1.657
1.652
1.662
1.662
1.657
1.657
1.672
1.681
1.672
1.662
1.672
1.672
1.662
1.657
1.662
1.676
1.676
1.672
1.686
1.701
1.696
1.686
1.686
1.701
1.706
1.696
1.701
1.72
1.725
1.725
1.72
1.73
1.74
1.73
1.725
1.74
1.75
1.75
1.74
1.74
1.745
1.74
1.73
1.755
1.779
1.794
1.804
1.818
1.838
1.838
1.823
1.823
1.823
1.818
1.808
1.804
1.808
1.818
1.808
1.804
1.813
1.823
1.813
1.808
1.808
1.818
1.808
1.794
1.799
1.804
1.794
1.774
1.764
1.764
1.755
1.73
1.72
1.725
1.72
1.706
1.701
1.706
1.711
1.696
1.681
1.686
1.691
1.686
1.681
1.676
1.676
1.662
1.642
1.652
1.657
1.652
1.637
1.637
1.647
1.652
1.637
1.637
1.652
1.652
1.647
1.647
1.652
1.662
1.652
1.652
1.662
1.667
1.657
1.647
1.647
1.652
1.642
1.632
1.642
1.657
1.662
1.667
1.667
1.681
1.676
1.657
1.657
1.667
1.667
1.657
1.652
1.662
1.667
1.652
1.652
1.662
1.672
1.672
1.672
1.681
1.701
1.701
1.696
1.706
1.72
1.716
1.711
1.706
1.716
1.716
1.701
1.701
1.706
1.706
1.691
1.681
1.681
1.676
1.657
1.642
1.647
1.657
1.657
1.657
1.662
1.667
1.662
1.647
1.657
1.662
1.652
1.642
1.642
1.647
1.642
1.623
1.628
1.637
1.642
1.637
1.637
1.652
1.667
1.657
1.657
1.672
1.672
1.662
1.647
1.647
1.647
1.637
1.628
1.642
1.662
1.676
1.691
1.725
1.769
1.813
1.848
1.901
1.955
1.984
1.989
1.979
1.96
1.926
1.852
1.789
1.73
1.672
1.613
1.564
1.554
1.559
1.564
1.579
1.613
1.652
1.672
1.681
1.691
1.696
1.686
1.657
1.652
1.652
1.647
1.637
1.632
1.642
1.652
1.642
1.642
1.652
1.657
1.652
1.647
1.652
1.657
1.642
1.623
1.628
1.637
1.637
1.637
1.642
1.662
1.672
1.657
1.662
1.672
1.672
1.657
1.652
1.662
1.676
1.672
1.676
1.696
1.701
1.696
1.681
1.676
1.676
1.662
1.642
1.647
1.662
1.672
1.676
1.691
1.716
1.72
1.711
1.716
1.725
1.72
1.711
1.706
1.716
1.725
1.716
1.716
1.735
1.745
1.74
1.74
1.74
1.745
1.74
1.73
1.745
1.764
1.769
1.764
1.769
1.779
1.779
1.764
1.769
1.784
1.784
1.784
1.784
1.804
1.818
1.813
1.808
1.818
1.823
1.818
1.808
1.804
1.808
1.799
1.794
1.808
1.823
1.823
1.813
1.804
1.808
1.799
1.779
1.774
1.779
1.769
1.755
1.745
1.75
1.75
1.725
1.716
1.72
1.72
1.706
1.691
1.686
1.686
1.672
1.652
1.652
1.657
1.652
1.647
1.642
1.647
1.637
1.608
1.608
1.623
1.623
1.623
1.628
1.642
1.652
1.642
1.647
1.662
1.667
1.657
1.647
1.647
1.652
1.647
1.637
1.647
1.657
1.652
1.642
1.642
1.652
1.657
1.647
1.657
1.681
1.686
1.686
1.686
1.696
1.701
1.681
1.672
1.676
1.676
1.667
1.662
1.672
1.686
1.681
1.672
1.676
1.681
1.686
1.686
1.691
1.706
1.711
1.701
1.706
1.716
1.716
1.706
1.701
1.706
1.701
1.681
1.676
1.686
1.691
1.686
1.681
1.676
1.676
1.667
1.652
1.662
1.667
1.662
1.647
1.642
1.647
1.642
1.623
1.628
1.642
1.647
1.642
1.642
1.647
1.657
1.647
1.642
1.657
1.657
1.647
1.652
1.657
1.672
1.662
1.647
1.647
1.652
1.642
1.632
1.637
1.662
1.686
1.711
1.755
1.813
1.857
1.891
1.921
1.955
1.97
1.96
1.94
1.926
1.887
1.828
1.764
1.711
1.662
1.608
1.564
1.559
1.579
1.588
1.608
1.637
1.676
1.691
1.681
1.676
1.676
1.667
1.652
1.637
1.642
1.642
1.637
1.647
1.667
1.672
1.672
1.667
1.672
1.676
1.667
1.647
1.652
1.657
1.652
1.642
1.642
1.652
1.647
1.637
1.642
1.652
1.657
1.662
1.667
1.676
1.686
1.672
1.672
1.681
1.681
1.672
1.662
1.667
1.676
1.672
1.662
1.676
1.686
1.686
1.681
1.681
1.696
1.696
1.686
1.686
1.701
1.706
1.706
1.706
1.716
1.716
1.701
1.696
1.711
1.72
1.72
1.72
1.735
1.75
1.745
1.735
1.745
1.75
1.74
1.735
1.735
1.745
1.75
1.74
1.755
1.774
1.779
1.779
1.774
1.784
1.789
1.779
1.774
1.789
1.799
1.799
1.794
1.794
1.804
1.794
1.789
1.804
1.813
1.818
1.813
1.823
1.833
1.828
1.799
1.794
1.794
1.779
1.76
1.74
1.74
1.735
1.716
1.716
1.72
1.725
1.716
1.701
1.696
1.696
1.672
1.657
1.647
1.647
1.637
1.628
1.628
1.642
1.642
1.628
1.632
1.647
1.642
1.632
1.632
1.637
1.637
1.623
1.618
1.628
1.637
1.632
1.628
1.637
1.647
1.637
1.632
1.642
1.657
1.647
1.637
1.632
1.642
1.637
1.623
1.623
1.632
1.632
1.628
1.632
1.647
1.652
1.637
1.637
1.657
1.662
1.652
1.642
1.642
1.647
1.637
1.628
1.642
1.652
1.647
1.642
1.652
1.667
1.667
1.652
1.657
1.667
1.667
1.662
1.657
1.667
1.667
1.652
1.652
1.667
1.676
1.676
1.676
1.686
1.701
1.691
1.681
1.686
1.691
1.686
1.681
1.681
1.696
1.691
1.676
1.681
1.691
1.686
1.667
1.652
1.647
1.642
1.628
1.623
1.637
1.642
1.642
1.637
1.642
1.652
1.637
1.623
1.628
1.637
1.637
1.632
1.637
1.652
1.652
1.637
1.637
1.642
1.632
1.628
1.623
1.628
1.628
1.613
1.613
1.628
1.637
1.637
1.637
1.662
1.691
1.72
1.755
1.818
1.877
1.921
1.955
1.989
2.019
2.014
1.979
1.945
1.906
1.843
1.769
1.691
1.632
1.588
1.544
1.535
1.554
1.574
1.593
1.613
1.642
1.667
1.657
1.642
1.637
1.637
1.628
1.618
1.623
1.632
1.628
1.618
1.623
1.632
1.637
1.632
1.632
1.642
1.652
1.637
1.637
1.647
1.652
1.642
1.632
1.637
1.647
1.637
1.628
1.637
1.642
1.637
1.632
1.628
1.632
1.623
1.613
1.623
1.642
1.652
1.652
1.657
1.667
1.676
1.662
1.662
1.676
1.681
1.676
1.672
1.686
1.701
1.691
1.676
1.681
1.691
1.686
1.681
1.686
1.701
1.706
1.696
1.711
1.725
1.73
1.73
1.725
1.74
1.745
1.73
1.73
1.745
1.75
1.75
1.74
1.75
1.76
1.755
1.75
1.764
1.779
1.779
1.779
1.789
1.804
1.804
1.789
1.794
1.804
1.804
1.804
1.804
1.808
1.813
1.804
1.808
1.823
1.828
1.818
1.818
1.823
1.828
1.808
1.794
1.799
1.804
1.794
1.779
1.774
1.779
1.769
1.745
1.74
1.745
1.73
1.716
1.701
1.701
1.696
1.672
1.662
1.672
1.672
1.662
1.652
1.652
1.652
1.637
1.623
1.628
1.632
1.623
1.613
1.613
1.618
1.618
1.608
1.618
1.632
1.632
1.632
1.632
1.642
1.647
1.637
1.632
1.647
1.652
1.642
1.637
1.647
1.657
1.642
1.628
1.632
1.637
1.628
1.623
1.628
1.642
1.642
1.628
1.632
1.642
1.642
1.632
1.628
1.632
1.632
1.618
1.613
1.628
1.632
1.628
1.618
1.628
1.632
1.618
1.603
1.613
1.618
1.613
1.608
1.618
1.632
1.637
1.628
1.637
1.652
1.652
1.642
1.637
1.647
1.647
1.632
1.628
1.637
1.642
1.637
1.632
1.637
1.642
1.628
1.623
1.632
1.642
1.632
1.623
1.623
1.632
1.632
1.623
1.632
1.652
1.657
1.652
1.652
1.662
1.667
1.652
1.652
1.667
1.672
1.672
1.672
1.681
1.691
1.686
1.676
1.681
1.681
1.676
1.676
1.681
1.696
1.696
1.686
1.696
1.706
1.696
1.676
1.662
1.657
1.647
1.628
1.623
1.632
1.642
1.637
1.637
1.642
1.652
1.642
1.623
1.628
1.632
1.623
1.618
1.618
1.628
1.623
1.608
1.613
1.628
1.623
1.618
1.613
1.623
1.623
1.618
1.618
1.642
1.662
1.676
1.711
1.769
1.828
1.882
1.935
1.999
2.048
2.077
2.082
2.077
2.053
1.999
1.911
1.838
1.764
1.691
1.623
1.579
1.559
1.554
1.554
1.574
1.613
1.642
1.657
1.657
1.662
1.667
1.647
1.628
1.628
1.628
1.618
1.608
1.603
1.613
1.608
1.598
1.603
1.618
1.618
1.618
1.623
1.637
1.642
1.623
1.623
1.632
1.637
1.632
1.632
1.632
1.637
1.623
1.613
1.623
1.632
1.632
1.628
1.637
1.652
1.657
1.647
1.657
1.672
1.672
1.662
1.657
1.667
1.672
1.657
1.652
1.667
1.672
1.667
1.667
1.676
1.691
1.686
1.681
1.691
1.701
1.696
1.686
1.691
1.696
1.691
1.681
1.686
1.701
1.701
1.696
1.701
1.72
1.73
1.725
1.735
1.755
1.769
1.76
1.755
1.764
1.779
1.769
1.764
1.774
1.789
1.784
1.779
1.784
1.794
1.794
1.779
1.784
1.804
1.804
1.808
1.808
1.823
1.828
1.808
1.804
1.813
1.818
1.808
1.804
1.808
1.818
1.804
1.794
1.799
1.804
1.794
1.779
1.774
1.779
1.76
1.74
1.73
1.73
1.72
1.696
1.681
1.676
1.672
1.652
1.642
1.652
1.652
1.647
1.642
1.647
1.647
1.632
1.618
1.628
1.632
1.628
1.618
1.623
1.632
1.623
1.608
1.613
1.623
1.618
1.603
1.603
1.608
1.613
1.598
1.598
1.613
1.623
1.618
1.613
1.618
1.623
1.608
1.598
1.608
1.618
1.608
1.603
1.608
1.618
1.613
1.598
1.608
1.623
1.623
1.618
1.618
1.628
1.628
1.613
1.613
1.618
1.623
1.613
1.603
1.608
1.618
1.603
1.598
1.613
1.623
1.623
1.623
1.628
1.637
1.632
1.613
1.613
1.618
1.608
1.598
1.598
1.613
1.618
1.608
1.613
1.623
1.623
1.608
1.598
1.608
1.618
1.608
1.603
1.618
1.628
1.623
1.618
1.618
1.628
1.623
1.603
1.608
1.618
1.613
1.603
1.608
1.623
1.628
1.613
1.613
1.628
1.632
1.628
1.618
1.618
1.618
1.608
1.598
1.613
1.628
1.628
1.628
1.632
1.642
1.632
1.613
1.613
1.618
1.618
1.608
1.608
1.618
1.623
1.613
1.613
1.623
1.628
1.623
1.623
1.632
1.637
1.628
1.618
1.623
1.623
1.618
1.613
1.618
1.637
1.632
1.623
1.623
1.632
1.632
1.632
1.628
1.632
1.637
1.623
1.628
1.642
1.647
1.642
1.637
1.642
1.652
1.642
1.642
1.667
1.681
1.686
1.681
1.681
1.691
1.686
1.672
1.681
1.696
1.696
1.686
1.686
1.701
1.706
1.691
1.691
1.701
1.701
1.691
1.681
1.681
1.686
1.667
1.662
1.667
1.672
1.657
1.642
1.632
1.632
1.623
1.608
1.618
1.628
1.628
1.628
1.637
1.652
1.657
1.642
1.637
1.642
1.637
1.628
1.618
1.628
1.632
1.618
1.608
1.623
1.637
1.647
1.667
1.711
1.769
1.818
1.857
1.916
1.984
2.033
2.063
2.087
2.097
2.082
2.033
1.984
1.931
1.852
1.76
1.672
1.613
1.574
1.544
1.535
1.559
1.588
1.608
1.623
1.637
1.652
1.642
1.628
1.628
1.637
1.628
1.618
1.613
1.623
1.623
1.603
1.603
1.613
1.623
1.618
1.618
1.628
1.637
1.623
1.613
1.623
1.628
1.623
1.618
1.623
1.628
1.623
1.608
1.618
1.637
1.647
1.652
1.657
1.667
1.667
1.647
1.642
1.647
1.637
1.623
1.623
1.632
1.652
1.652
1.657
1.672
1.686
1.676
1.667
1.672
1.681
1.676
1.662
1.672
1.686
1.691
1.691
1.696
1.711
1.716
1.696
1.701
1.716
1.72
1.72
1.72
1.725
1.73
1.72
1.72
1.73
1.74
1.745
1.745
1.755
1.769
1.769
1.76
1.764
1.779
1.779
1.769
1.769
1.779
1.779
1.769
1.784
1.804
1.813
1.813
1.813
1.828
1.838
1.828
1.818
1.828
1.843
1.838
1.838
1.843
1.852
1.848
1.838
1.838
1.843
1.833
1.823
1.818
1.823
1.823
1.804
1.799
1.804
1.794
1.774
1.755
1.75
1.745
1.72
1.706
1.711
1.716
1.706
1.696
1.691
1.691
1.672
1.647
1.642
1.652
1.647
1.642
1.642
1.652
1.657
1.642
1.642
1.647
1.642
1.632
1.623
1.632
1.642
1.632
1.628
1.642
1.652
1.642
1.632
1.632
1.637
1.628
1.618
1.628
1.637
1.632
1.628
1.623
1.628
1.623
1.608
1.608
1.623
1.623
1.623
1.618
1.628
1.637
1.623
1.613
1.628
1.632
1.623
1.618
1.623
1.632
1.632
1.623
1.628
1.642
1.637
1.623
1.618
1.618
1.623
1.608
1.613
1.632
1.637
1.637
1.637
1.642
1.642
1.623
1.608
1.608
1.613
1.608
1.608
1.618
1.628
1.628
1.613
1.618
1.628
1.623
1.618
1.618
1.628
1.628
1.613
1.618
1.632
1.628
1.613
1.603
1.613
1.623
1.608
1.598
1.603
1.618
1.618
1.618
1.628
1.647
1.642
1.632
1.637
1.647
1.642
1.632
1.637
1.647
1.652
1.647
1.657
1.676
1.681
1.681
1.681
1.686
1.691
1.681
1.676
1.696
1.711
1.711
1.706
1.701
1.706
1.696
1.676
1.676
1.686
1.686
1.676
1.681
1.691
1.691
1.667
1.657
1.657
1.642
1.623
1.618
1.623
1.628
1.613
1.603
1.623
1.637
1.642
1.642
1.647
1.657
1.652
1.637
1.642
1.647
1.637
1.623
1.613
1.618
1.618
1.603
1.598
1.613
1.623
1.623
1.632
1.667
1.711
1.74
1.789
1.852
1.921
1.975
2.019
2.063
2.102
2.111
2.097
2.077
2.038
1.965
1.867
1.774
1.696
1.623
1.554
1.53
1.535
1.549
1.569
1.598
1.637
1.667
1.662
1.652
1.657
1.657
1.642
1.632
1.632
1.642
1.637
1.623
1.632
1.642
1.637
1.628
1.623
1.628
1.628
1.608
1.608
1.623
1.632
1.632
1.632
1.642
1.652
1.637
1.632
1.647
1.652
1.642
1.632
1.628
1.637
1.632
1.623
1.637
1.652
1.657
1.657
1.662
1.681
1.686
1.676
1.672
1.681
1.681
1.676
1.672
1.681
1.686
1.672
1.667
1.681
1.686
1.686
1.681
1.686
1.696
1.696
1.686
1.701
1.72
1.72
1.716
1.72
1.725
1.73
1.716
1.72
1.735
1.74
1.735
1.735
1.75
1.764
1.755
1.75
1.764
1.779
1.779
1.774
1.774
1.784
1.784
1.774
1.789
1.804
1.808
1.813
1.818
1.833
1.833
1.818
1.813
1.828
1.833
1.828
1.823
1.828
1.838
1.828
1.823
1.833
1.838
1.828
1.813
1.804
1.804
1.789
1.764
1.76
1.76
1.74
1.72
1.711
1.711
1.701
1.676
1.662
1.667
1.657
1.647
1.637
1.642
1.642
1.628
1.613
1.618
1.613
1.603
1.598
1.598
1.608
1.603
1.598
1.608
1.618
1.618
1.613
1.613
1.628
1.628
1.608
1.608
1.618
1.618
1.608
1.598
1.603
1.613
1.603
1.598
1.613
1.623
1.618
1.608
1.608
1.608
1.598
1.584
1.593
1.608
1.608
1.608
1.613
1.623
1.628
1.613
1.613
1.623
1.623
1.613
1.613
1.613
1.618
1.603
1.598
1.613
1.632
1.632
1.632
1.637
1.647
1.637
1.623
1.623
1.623
1.613
1.603
1.598
1.613
1.623
1.613
1.613
1.632
1.632
1.632
1.623
1.628
1.632
1.623
1.618
1.628
1.632
1.628
1.618
1.618
1.628
1.623
1.608
1.618
1.628
1.628
1.613
1.613
1.623
1.623
1.603
1.608
1.623
1.623
1.623
1.618
1.628
1.632
1.628
1.632
1.647
1.662
1.662
1.662
1.667
1.681
1.676
1.667
1.672
1.681
1.681
1.676
1.681
1.691
1.696
1.681
1.686
1.701
1.706
1.706
1.706
1.72
1.725
1.716
1.706
1.716
1.72
1.716
1.706
1.701
1.706
1.691
1.672
1.672
1.676
1.662
1.652
1.647
1.657
1.652
1.632
1.632
1.642
1.637
1.628
1.628
1.632
1.647
1.642
1.642
1.657
1.667
1.652
1.642
1.637
1.637
1.623
1.608
1.613
1.623
1.623
1.623
1.632
1.662
1.686
1.711
1.76
1.833
1.901
1.96
2.019
2.077
2.121
2.126
2.126
2.121
2.097
2.028
1.945
1.857
1.769
1.676
1.598
1.559
1.544
1.54
1.549
1.579
1.623
1.657
1.662
1.667
1.676
1.667
1.652
1.642
1.642
1.642
1.623
1.618
1.628
1.637
1.632
1.628
1.632
1.647
1.642
1.628
1.632
1.642
1.637
1.628
1.628
1.642
1.642
1.632
1.637
1.647
1.652
1.642
1.642
1.647
1.657
1.647
1.637
1.642
1.652
1.652
1.647
1.657
1.672
1.667
1.657
1.667
1.681
1.676
1.672
1.672
1.681
1.681
1.662
1.667
1.681
1.691
1.691
1.691
1.701
1.706
1.691
1.691
1.706
1.716
1.711
1.706
1.711
1.725
1.725
1.72
1.735
1.745
1.745
1.74
1.74
1.75
1.755
1.745
1.75
1.769
1.779
1.784
1.789
1.804
1.818
1.813
1.813
1.823
1.828
1.828
1.823
1.833
1.838
1.833
1.823
1.838
1.857
1.857
1.848
1.848
1.857
1.857
1.838
1.843
1.848
1.848
1.838
1.828
1.838
1.838
1.823
1.813
1.818
1.818
1.804
1.789
1.779
1.774
1.75
1.72
1.72
1.72
1.711
1.701
1.696
1.696
1.691
1.667
1.662
1.667
1.662
1.652
1.647
1.652
1.662
1.647
1.642
1.647
1.637
1.618
1.603
1.608
1.623
1.618
1.613
1.628
1.647
1.657
1.652
1.652
1.662
1.652
1.632
1.632
1.647
1.652
1.647
1.642
1.647
1.647
1.632
1.623
1.628
1.628
1.618
1.613
1.618
1.628
1.628
1.618
1.628
1.642
1.637
1.632
1.632
1.637
1.632
1.613
1.618
1.628
1.632
1.628
1.628
1.637
1.632
1.618
1.613
1.628
1.632
1.623
1.618
1.623
1.632
1.628
1.623
1.632
1.642
1.632
1.628
1.632
1.647
1.652
1.637
1.642
1.652
1.652
1.647
1.642
1.647
1.647
1.632
1.623
1.632
1.637
1.632
1.628
1.632
1.637
1.628
1.618
1.628
1.642
1.647
1.647
1.652
1.662
1.667
1.652
1.657
1.672
1.672
1.657
1.647
1.657
1.667
1.652
1.652
1.672
1.681
1.676
1.681
1.691
1.711
1.706
1.696
1.701
1.716
1.716
1.716
1.72
1.73
1.725
1.711
1.716
1.73
1.73
1.72
1.716
1.72
1.72
1.701
1.686
1.691
1.681
1.667
1.652
1.642
1.647
1.632
1.623
1.632
1.642
1.642
1.637
1.642
1.652
1.647
1.632
1.632
1.652
1.652
1.642
1.637
1.637
1.637
1.623
1.618
1.632
1.637
1.632
1.632
1.647
1.667
1.676
1.691
1.74
1.794
1.848
1.896
1.96
2.023
2.067
2.082
2.097
2.102
2.072
2.019
1.945
1.872
1.794
1.696
1.623
1.584
1.554
1.54
1.544
1.569
1.613
1.632
1.652
1.672
1.686
1.676
1.662
1.647
1.642
1.632
1.613
1.618
1.632
1.632
1.632
1.632
1.642
1.652
1.642
1.642
1.657
1.662
1.662
1.662
1.672
1.681
1.672
1.657
1.662
1.672
1.667
1.657
1.657
1.672
1.676
1.662
1.672
1.686
1.681
1.672
1.662
1.667
1.672
1.662
1.657
1.676
1.686
1.686
1.681
1.691
1.701
1.696
1.691
1.711
1.72
1.716
1.711
1.716
1.72
1.716
1.691
1.691
1.706
1.716
1.72
1.73
1.755
1.769
1.76
1.755
1.764
1.769
1.76
1.755
1.76
1.774
1.769
1.764
1.779
1.794
1.794
1.789
1.794
1.808
1.808
1.799
1.804
1.823
1.828
1.823
1.818
1.823
1.828
1.813
1.813
1.828
1.833
1.828
1.823
1.828
1.838
1.828
1.818
1.828
1.843
1.843
1.838
1.833
1.838
1.833
1.813
1.804
1.808
1.799
1.789
1.774
1.774
1.769
1.75
1.73
1.73
1.725
1.706
1.691
1.686
1.691
1.676
1.657
1.662
1.667
1.667
1.657
1.652
1.657
1.652
1.637
1.637
1.642
1.642
1.632
1.632
1.642
1.652
1.642
1.637
1.652
1.662
1.652
1.647
1.642
1.652
1.637
1.628
1.632
1.642
1.642
1.637
1.637
1.652
1.652
1.642
1.642
1.662
1.662
1.652
1.647
1.647
1.647
1.628
1.623
1.632
1.637
1.632
1.628
1.637
1.647
1.637
1.623
1.632
1.637
1.628
1.618
1.623
1.632
1.632
1.613
1.613
1.628
1.628
1.618
1.618
1.628
1.632
1.623
1.623
1.637
1.642
1.632
1.628
1.628
1.637
1.628
1.618
1.628
1.632
1.628
1.618
1.618
1.628
1.623
1.608
1.618
1.628
1.632
1.632
1.628
1.632
1.637
1.623
1.613
1.623
1.628
1.623
1.623
1.632
1.647
1.642
1.637
1.647
1.657
1.657
1.652
1.652
1.667
1.662
1.652
1.657
1.676
1.681
1.676
1.681
1.691
1.696
1.681
1.681
1.696
1.701
1.696
1.686
1.686
1.691
1.672
1.652
1.647
1.647
1.637
1.618
1.618
1.623
1.623
1.613
1.618
1.632
1.637
1.628
1.623
1.628
1.628
1.618
1.608
1.623
1.623
1.618
1.608
1.613
1.618
1.603
1.588
1.598
1.603
1.593
1.584
1.588
1.613
1.637
1.657
1.706
1.769
1.828
1.882
1.935
1.984
2.023
2.019
2.009
1.999
1.96
1.896
1.823
1.755
1.691
1.613
1.554
1.525
1.52
1.52
1.53
1.549
1.584
1.608
1.613
1.623
1.642
1.642
1.637
1.632
1.637
1.637
1.623
1.618
1.632
1.637
1.632
1.628
1.632
1.642
1.637
1.632
1.637
1.652
1.647
1.642
1.637
1.642
1.632
1.618
1.618
1.628
1.628
1.623
1.628
1.642
1.657
1.647
1.647
1.657
1.662
1.657
1.647
1.647
1.652
1.642
1.632
1.647
1.662
1.662
1.657
1.662
1.672
1.672
1.662
1.672
1.681
1.686
1.686
1.686
1.701
1.716
1.711
1.711
1.725
1.725
1.716
1.706
1.711
1.72
1.711
1.706
1.72
1.74
1.745
1.745
1.755
1.764
1.764
1.75
1.75
1.76
1.76
1.755
1.76
1.774
1.784
1.774
1.774
1.794
1.804
1.804
1.804
1.808
1.818
1.813
1.808
1.823
1.833
1.828
1.823
1.823
1.828
1.823
1.804
1.804
1.818
1.818
1.813
1.808
1.813
1.813
1.799
1.789
1.794
1.789
1.774
1.755
1.75
1.745
1.725
1.711
1.711
1.706
1.686
1.672
1.667
1.667
1.657
1.642
1.637
1.642
1.642
1.632
1.628
1.632
1.632
1.613
1.608
1.618
1.623
1.618
1.618
1.623
1.632
1.623
1.613
1.618
1.628
1.623
1.613
1.613
1.618
1.618
1.603
1.608
1.618
1.623
1.613
1.613
1.623
1.632
1.623
1.623
1.637
1.647
1.642
1.637
1.637
1.642
1.623
1.603
1.603
1.613
1.608
1.603
1.613
1.628
1.628
1.623
1.628
1.637
1.632
1.623
1.618
1.623
1.628
1.613
1.608
1.623
1.628
1.618
1.618
1.618
1.632
1.623
1.613
1.623
1.632
1.628
1.623
1.618
1.618
1.608
1.584
1.579
1.588
1.579
1.574
1.569
1.584
1.598
1.598
1.608
1.628
1.637
1.632
1.628
1.637
1.642
1.628
1.618
1.623
1.628
1.623
1.618
1.618
1.623
1.618
1.603
1.608
1.623
1.623
1.623
1.628
1.642
1.652
1.642
1.642
1.667
1.676
1.676
1.676
1.686
1.696
1.686
1.676
1.691
1.706
1.701
1.691
1.696
1.706
1.706
1.686
1.686
1.691
1.686
1.676
1.672
1.676
1.681
1.667
1.662
1.667
1.667
1.657
1.642
1.642
1.642
1.628
1.613
1.623
1.632
1.632
1.628
1.628
1.637
1.632
1.613
1.618
1.628
1.628
1.618
1.618
1.628
1.628
1.613
1.613
1.623
1.628
1.623
1.623
1.637
1.667
1.686
1.716
1.774
1.838
1.891
1.94
1.994
2.048
2.067
2.063
2.058
2.043
1.994
1.926
1.848
1.774
1.696
1.613
1.564
1.549
1.549
1.554
1.569
1.603
1.637
1.652
1.652
1.662
1.662
1.642
1.623
1.618
1.628
1.632
1.623
1.632
1.642
1.642
1.632
1.632
1.632
1.637
1.623
1.618
1.632
1.642
1.637
1.632
1.642
1.647
1.637
1.628
1.632
1.642
1.637
1.632
1.632
1.647
1.652
1.647
1.657
1.667
1.667
1.662
1.657
1.662
1.662
1.637
1.632
1.647
1.662
1.657
1.652
1.657
1.672
1.667
1.662
1.676
1.691
1.691
1.691
1.696
1.706
1.701
1.686
1.691
1.701
1.701
1.701
1.706
1.72
1.735
1.725
1.725
1.745
1.75
1.75
1.75
1.76
1.774
1.769
1.764
1.779
1.794
1.794
1.789
1.799
1.808
1.804
1.789
1.794
1.808
1.808
1.808
1.808
1.823
1.828
1.818
1.818
1.838
1.843
1.838
1.833
1.843
1.852
1.843
1.833
1.848
1.862
1.857
1.848
1.843
1.852
1.848
1.833
1.828
1.828
1.813
1.789
1.774
1.769
1.76
1.74
1.725
1.735
1.73
1.725
1.716
1.716
1.716
1.696
1.681
1.686
1.691
1.686
1.672
1.662
1.662
1.647
1.623
1.623
1.623
1.618
1.613
1.613
1.628
1.637
1.628
1.628
1.642
1.647
1.642
1.637
1.642
1.647
1.637
1.628
1.637
1.642
1.632
1.628
1.632
1.642
1.642
1.632
1.637
1.652
1.652
1.642
1.642
1.642
1.642
1.623
1.623
1.637
1.642
1.637
1.632
1.632
1.642
1.632
1.623
1.632
1.637
1.637
1.632
1.637
1.647
1.647
1.632
1.632
1.647
1.642
1.632
1.623
1.632
1.637
1.623
1.623
1.637
1.642
1.637
1.628
1.637
1.642
1.628
1.623
1.628
1.637
1.637
1.632
1.637
1.647
1.642
1.628
1.632
1.642
1.637
1.628
1.623
1.637
1.642
1.623
1.618
1.632
1.637
1.632
1.628
1.632
1.647
1.642
1.632
1.642
1.652
1.647
1.642
1.647
1.662
1.662
1.647
1.662
1.676
1.676
1.672
1.672
1.676
1.686
1.676
1.686
1.706
1.711
1.711
1.711
1.716
1.72
1.701
1.691
1.696
1.701
1.696
1.686
1.686
1.696
1.691
1.672
1.672
1.676
1.672
1.662
1.652
1.657
1.657
1.637
1.632
1.642
1.637
1.628
1.618
1.623
1.628
1.623
1.608
1.628
1.637
1.637
1.632
1.632
1.642
1.632
1.613
1.613
1.623
1.618
1.613
1.618
1.632
1.652
1.667
1.701
1.76
1.818
1.877
1.935
1.999
2.063
2.092
2.102
2.116
2.111
2.067
1.999
1.916
1.833
1.735
1.642
1.584
1.554
1.535
1.535
1.549
1.588
1.613
1.623
1.632
1.647
1.647
1.637
1.623
1.623
1.632
1.623
1.613
1.623
1.628
1.623
1.613
1.618
1.623
1.618
1.603
1.608
1.628
1.628
1.623
1.623
1.637
1.642
1.628
1.628
1.642
1.642
1.632
1.628
1.632
1.637
1.632
1.632
1.647
1.657
1.652
1.647
1.652
1.657
1.657
1.652
1.657
1.672
1.672
1.667
1.667
1.681
1.681
1.667
1.662
1.676
1.681
1.676
1.676
1.686
1.696
1.686
1.681
1.696
1.706
1.706
1.701
1.711
1.725
1.725
1.716
1.725
1.735
1.74
1.735
1.74
1.76
1.769
1.764
1.769
1.784
1.784
1.774
1.769
1.779
1.784
1.779
1.774
1.794
1.808
1.813
1.818
1.823
1.843
1.838
1.823
1.833
1.848
1.852
1.848
1.848
1.852
1.852
1.838
1.833
1.848
1.848
1.838
1.828
1.833
1.833
1.818
1.804
1.804
1.808
1.794
1.779
1.774
1.774
1.76
1.735
1.73
1.73
1.72
1.706
1.701
1.701
1.696
1.672
1.657
1.662
1.657
1.642
1.632
1.637
1.642
1.632
1.618
1.632
1.642
1.632
1.623
1.623
1.632
1.628
1.618
1.628
1.637
1.637
1.628
1.623
1.628
1.628
1.608
1.608
1.618
1.623
1.618
1.613
1.618
1.628
1.618
1.608
1.618
1.628
1.628
1.623
1.623
1.632
1.628
1.618
1.623
1.632
1.628
1.628
1.628
1.642
1.642
1.628
1.623
1.628
1.632
1.628
1.618
1.623
1.632
1.623
1.613
1.628
1.632
1.628
1.618
1.618
1.628
1.623
1.608
1.613
1.628
1.628
1.623
1.628
1.637
1.642
1.623
1.623
1.632
1.637
1.637
1.637
1.642
1.652
1.637
1.632
1.647
1.657
1.652
1.652
1.652
1.667
1.672
1.662
1.676
1.696
1.701
1.696
1.691
1.701
1.706
1.691
1.691
1.701
1.706
1.701
1.691
1.686
1.686
1.667
1.647
1.642
1.637
1.623
1.613
1.613
1.623
1.623
1.613
1.623
1.642
1.642
1.637
1.637
1.642
1.637
1.618
1.613
1.623
1.628
1.623
1.623
1.632
1.647
1.637
1.623
1.628
1.628
1.613
1.598
1.593
1.608
1.623
1.632
1.681
1.745
1.799
1.857
1.921
1.994
2.048
2.077
2.102
2.121
2.107
2.063
1.999
1.926
1.848
1.75
1.657
1.603
1.569
1.544
1.54
1.554
1.588
1.608
1.618
1.642
1.662
1.657
1.642
1.632
1.637
1.642
1.632
1.637
1.652
1.652
1.637
1.623
1.628
1.632
1.618
1.608
1.623
1.637
1.647
1.647
1.657
1.667
1.657
1.637
1.637
1.642
1.637
1.632
1.632
1.642
1.652
1.642
1.642
1.662
1.667
1.657
1.652
1.662
1.667
1.657
1.652
1.667
1.676
1.672
1.672
1.676
1.691
1.686
1.676
1.681
1.696
1.696
1.691
1.696
1.716
1.72
1.711
1.716
1.735
1.735
1.72
1.711
1.72
1.73
1.725
1.725
1.74
1.755
1.76
1.76
1.769
1.779
1.779
1.764
1.774
1.789
1.794
1.789
1.789
1.799
1.804
1.789
1.789
1.804
1.813
1.808
1.808
1.818
1.833
1.823
1.823
1.833
1.848
1.848
1.843
1.848
1.857
1.852
1.843
1.848
1.857
1.852
1.848
1.838
1.843
1.838
1.813
1.808
1.808
1.799
1.784
1.774
1.774
1.779
1.76
1.745
1.745
1.735
1.716
1.696
1.686
1.691
1.676
1.657
1.662
1.672
1.667
1.662
1.657
1.662
1.662
1.642
1.637
1.647
1.652
1.642
1.632
1.632
1.637
1.628
1.623
1.632
1.642
1.637
1.637
1.637
1.647
1.637
1.623
1.628
1.637
1.637
1.628
1.628
1.642
1.647
1.623
1.618
1.632
1.642
1.637
1.637
1.642
1.652
1.642
1.632
1.642
1.652
1.642
1.632
1.628
1.637
1.632
1.623
1.632
1.647
1.647
1.642
1.647
1.657
1.657
1.642
1.642
1.657
1.657
1.652
1.647
1.652
1.662
1.647
1.642
1.657
1.667
1.662
1.662
1.667
1.676
1.667
1.652
1.657
1.676
1.681
1.686
1.691
1.706
1.716
1.711
1.711
1.716
1.711
1.701
1.696
1.696
1.696
1.676
1.667
1.667
1.667
1.647
1.632
1.628
1.632
1.628
1.618
1.628
1.642
1.642
1.632
1.628
1.637
1.637
1.623
1.623
1.637
1.637
1.637
1.637
1.652
1.657
1.637
1.623
1.628
1.632
1.628
1.613
1.613
1.623
1.618
1.613
1.632
1.662
1.691
1.725
1.774
1.838
1.896
1.94
1.994
2.053
2.077
2.077
2.058
2.028
1.975
1.891
1.804
1.73
1.662
1.593
1.549
1.535
1.549
1.559
1.564
1.598
1.632
1.642
1.642
1.637
1.642
1.637
1.618
1.618
1.628
1.632
1.628
1.623
1.632
1.637
1.623
1.618
1.628
1.637
1.637
1.632
1.637
1.647
1.637
1.628
1.637
1.652
1.647
1.642
1.642
1.652
1.652
1.642
1.642
1.657
1.662
1.657
1.657
1.667
1.676
1.667
1.662
1.672
1.676
1.672
1.667
1.672
1.681
1.681
1.672
1.681
1.696
1.701
1.696
1.691
1.706
1.706
1.686
1.681
1.696
1.706
1.706
1.711
1.72
1.725
1.72
1.72
1.74
1.75
1.75
1.745
1.745
1.755
1.75
1.74
1.745
1.76
1.76
1.755
1.764
1.784
1.794
1.789
1.794
1.813
1.818
1.813
1.813
1.823
1.833
1.823
1.813
1.823
1.833
1.828
1.823
1.828
1.833
1.833
1.823
1.833
1.848
1.848
1.843
1.838
1.843
1.838
1.813
1.808
1.808
1.799
1.779
1.769
1.764
1.764
1.745
1.73
1.74
1.74
1.725
1.706
1.696
1.696
1.681
1.657
1.652
1.657
1.652
1.642
1.637
1.647
1.647
1.632
1.632
1.647
1.647
1.642
1.637
1.642
1.642
1.628
1.613
1.623
1.623
1.623
1.618
1.618
1.628
1.623
1.613
1.623
1.632
1.632
1.623
1.628
1.632
1.637
1.623
1.623
1.632
1.637
1.628
1.623
1.632
1.642
1.632
1.628
1.642
1.647
1.642
1.637
1.642
1.652
1.642
1.632
1.637
1.652
1.652
1.642
1.642
1.657
1.662
1.652
1.657
1.672
1.676
1.672
1.667
1.676
1.681
1.672
1.667
1.676
1.686
1.681
1.676
1.676
1.681
1.672
1.652
1.657
1.662
1.657
1.647
1.642
1.647
1.647
1.623
1.618
1.623
1.628
1.618
1.623
1.628
1.637
1.623
1.613
1.618
1.623
1.613
1.603
1.603
1.613
1.613
1.608
1.618
1.632
1.628
1.618
1.613
1.618
1.618
1.593
1.588
1.598
1.603
1.603
1.613
1.642
1.681
1.716
1.76
1.828
1.891
1.94
1.979
2.014
2.033
2.023
1.984
1.95
1.901
1.828
1.745
1.667
1.613
1.564
1.52
1.51
1.53
1.554
1.579
1.608
1.637
1.662
1.652
1.642
1.642
1.637
1.618
1.608
1.608
1.623
1.618
1.608
1.618
1.628
1.628
1.623
1.618
1.623
1.623
1.608
1.613
1.628
1.632
1.632
1.628
1.632
1.637
1.628
1.623
1.632
1.642
1.637
1.628
1.632
1.647
1.642
1.632
1.637
1.647
1.647
1.642
1.647
1.662
1.667
1.652
1.657
1.667
1.672
1.667
1.662
1.667
1.681
1.672
1.672
1.686
1.696
1.691
1.681
1.686
1.696
1.686
1.676
1.681
1.701
1.711
1.716
1.72
1.74
1.745
1.735
1.74
1.76
1.764
1.764
1.764
1.774
1.784
1.774
1.769
1.784
1.794
1.794
1.784
1.794
1.804
1.804
1.794
1.808
1.823
1.828
1.818
1.818
1.823
1.823
1.808
1.808
1.823
1.828
1.823
1.818
1.828
1.833
1.818
1.808
1.808
1.813
1.799
1.784
1.774
1.779
1.764
1.74
1.74
1.74
1.725
1.706
1.696
1.696
1.691
1.672
1.667
1.676
1.676
1.667
1.662
1.662
1.662
1.642
1.623
1.623
1.623
1.613
1.608
1.613
1.628
1.618
1.608
1.618
1.632
1.628
1.623
1.618
1.623
1.623
1.608
1.613
1.628
1.632
1.623
1.618
1.628
1.632
1.623
1.618
1.632
1.637
1.632
1.628
1.637
1.652
1.647
1.632
1.637
1.647
1.642
1.632
1.628
1.637
1.637
1.628
1.628
1.642
1.647
1.642
1.647
1.657
1.667
1.657
1.647
1.662
1.676
1.676
1.672
1.676
1.681
1.676
1.667
1.676
1.686
1.686
1.681
1.681
1.681
1.681
1.657
1.657
1.662
1.657
1.642
1.632
1.632
1.632
1.613
1.603
1.613
1.618
1.613
1.608
1.613
1.628
1.623
1.618
1.623
1.628
1.618
1.608
1.608
1.613
1.613
1.593
1.598
1.618
1.618
1.618
1.613
1.613
1.618
1.603
1.588
1.598
1.603
1.603
1.613
1.637
1.681
1.716
1.755
1.813
1.877
1.926
1.965
1.994
2.019
2.019
1.984
1.95
1.906
1.843
1.76
1.676
1.613
1.569
1.52
1.5
1.52
1.549
1.574
1.598
1.628
1.647
1.642
1.628
1.623
1.628
1.613
1.603
1.603
1.613
1.613
1.598
1.598
1.608
1.608
1.603
1.603
1.608
1.613
1.598
1.593
1.608
1.623
1.623
1.618
1.628
1.642
1.642
1.632
1.642
1.647
1.642
1.628
1.623
1.628
1.628
1.618
1.623
1.642
1.647
1.642
1.637
1.647
1.652
1.642
1.637
1.652
1.657
1.657
1.652
1.662
1.672
1.667
1.657
1.667
1.681
1.681
1.676
1.686
1.701
1.706
1.696
1.701
1.72
1.72
1.72
1.716
1.725
1.735
1.72
1.72
1.735
1.75
1.75
1.745
1.755
1.769
1.764
1.76
1.774
1.789
1.789
1.784
1.789
1.799
1.799
1.784
1.789
1.804
1.808
1.804
1.808
1.818
1.828
1.818
1.813
1.823
1.828
1.823
1.813
1.818
1.828
1.823
1.813
1.818
1.813
1.799
1.779
1.76
1.755
1.74
1.716
1.711
1.716
1.716
1.706
1.696
1.691
1.686
1.662
1.647
1.647
1.647
1.637
1.628
1.632
1.632
1.628
1.613
1.618
1.628
1.628
1.623
1.623
1.632
1.632
1.613
1.613
1.618
1.618
1.613
1.608
1.618
1.623
1.613
1.608
1.618
1.628
1.623
1.613
1.608
1.618
1.603
1.584
1.593
1.608
1.608
1.603
1.608
1.618
1.623
1.608
1.608
1.618
1.623
1.618
1.618
1.632
1.642
1.632
1.628
1.637
1.637
1.632
1.623
1.623
1.632
1.623
1.613
1.623
1.637
1.642
1.637
1.637
1.647
1.647
1.637
1.642
1.662
1.667
1.662
1.657
1.667
1.681
1.672
1.667
1.676
1.681
1.672
1.662
1.662
1.672
1.657
1.637
1.632
1.632
1.623
1.613
1.608
1.613
1.613
1.598
1.603
1.613
1.618
1.608
1.603
1.603
1.608
1.598
1.593
1.603
1.608
1.598
1.593
1.593
1.603
1.593
1.584
1.593
1.603
1.603
1.593
1.593
1.593
1.593
1.584
1.588
1.618
1.642
1.676
1.72
1.779
1.843
1.882
1.931
1.989
2.028
2.043
2.038
2.028
2.004
1.94
1.857
1.789
1.72
1.642
1.579
1.535
1.53
1.53
1.535
1.559
1.593
1.618
1.623
1.623
1.623
1.623
1.603
1.593
1.608
1.613
1.608
1.603
1.608
1.613
1.603
1.593
1.598
1.608
1.603
1.598
1.598
1.608
1.608
1.598
1.598
1.613
1.613
1.613
1.613
1.623
1.628
1.613
1.603
1.618
1.623
1.623
1.618
1.628
1.637
1.628
1.618
1.628
1.637
1.632
1.628
1.628
1.642
1.642
1.632
1.637
1.652
1.657
1.652
1.647
1.662
1.672
1.662
1.657
1.672
1.676
1.672
1.667
1.676
1.691
1.686
1.686
1.701
1.716
1.711
1.706
1.711
1.725
1.73
1.72
1.725
1.74
1.75
1.75
1.755
1.764
1.779
1.769
1.764
1.779
1.789
1.784
1.784
1.789
1.799
1.794
1.784
1.794
1.813
1.813
1.808
1.808
1.818
1.818
1.804
1.808
1.833
1.843
1.833
1.828
1.833
1.828
1.808
1.794
1.794
1.784
1.769
1.75
1.745
1.75
1.73
1.711
1.711
1.711
1.696
1.681
1.667
1.662
1.652
1.632
1.623
1.632
1.632
1.623
1.618
1.628
1.632
1.618
1.613
1.618
1.618
1.613
1.603
1.603
1.613
1.603
1.588
1.598
1.613
1.608
1.603
1.598
1.608
1.608
1.588
1.588
1.603
1.608
1.608
1.613
1.628
1.637
1.628
1.623
1.632
1.628
1.618
1.603
1.603
1.608
1.598
1.598
1.608
1.623
1.623
1.623
1.623
1.632
1.628
1.608
1.608
1.623
1.623
1.618
1.618
1.623
1.632
1.618
1.613
1.628
1.632
1.623
1.618
1.618
1.623
1.613
1.603
1.618
1.632
1.637
1.637
1.642
1.657
1.662
1.642
1.647
1.657
1.657
1.652
1.652
1.662
1.667
1.657
1.662
1.676
1.691
1.691
1.691
1.691
1.701
1.696
1.681
1.691
1.696
1.686
1.672
1.667
1.672
1.662
1.642
1.637
1.642
1.637
1.628
1.618
1.628
1.632
1.618
1.613
1.618
1.623
1.613
1.603
1.608
1.618
1.608
1.598
1.613
1.628
1.628
1.623
1.618
1.628
1.628
1.608
1.608
1.618
1.618
1.603
1.598
1.603
1.613
1.608
1.632
1.681
1.745
1.804
1.867
1.94
2.014
2.058
2.082
2.107
2.111
2.092
2.038
1.975
1.906
1.818
1.716
1.647
1.598
1.559
1.54
1.54
1.564
1.598
1.613
1.628
1.647
1.652
1.637
1.623
1.608
1.608
1.593
1.579
1.588
1.603
1.603
1.603
1.608
1.623
1.628
1.613
1.618
1.632
1.632
1.628
1.628
1.632
1.642
1.628
1.623
1.632
1.642
1.632
1.623
1.628
1.632
1.628
1.618
1.632
1.642
1.642
1.637
1.637
1.647
1.647
1.632
1.637
1.657
1.662
1.657
1.652
1.662
1.672
1.662
1.662
1.672
1.676
1.672
1.667
1.672
1.676
1.667
1.662
1.676
1.696
1.701
1.701
1.711
1.73
1.735
1.725
1.725
1.735
1.74
1.735
1.735
1.745
1.755
1.745
1.75
1.764
1.774
1.774
1.769
1.779
1.794
1.794
1.789
1.799
1.813
1.818
1.818
1.823
1.833
1.828
1.813
1.813
1.823
1.828
1.823
1.823
1.838
1.848
1.843
1.838
1.852
1.857
1.848
1.838
1.833
1.833
1.813
1.794
1.794
1.794
1.779
1.76
1.75
1.75
1.74
1.72
1.711
1.725
1.716
1.701
1.686
1.681
1.676
1.657
1.647
1.657
1.657
1.652
1.642
1.642
1.652
1.642
1.632
1.637
1.642
1.637
1.628
1.628
1.637
1.637
1.618
1.623
1.632
1.632
1.623
1.623
1.632
1.637
1.628
1.623
1.632
1.642
1.632
1.623
1.623
1.628
1.618
1.603
1.618
1.632
1.628
1.623
1.628
1.637
1.632
1.613
1.608
1.618
1.618
1.613
1.613
1.628
1.632
1.623
1.628
1.642
1.642
1.632
1.623
1.623
1.628
1.623
1.613
1.623
1.632
1.637
1.632
1.632
1.637
1.632
1.613
1.613
1.623
1.618
1.613
1.613
1.623
1.632
1.628
1.623
1.637
1.637
1.628
1.623
1.623
1.632
1.623
1.608
1.613
1.623
1.623
1.623
1.623
1.632
1.628
1.608
1.613
1.628
1.628
1.623
1.618
1.623
1.628
1.618
1.613
1.628
1.637
1.628
1.628
1.628
1.637
1.628
1.618
1.628
1.642
1.637
1.632
1.632
1.642
1.642
1.628
1.628
1.642
1.642
1.632
1.632
1.642
1.647
1.632
1.628
1.642
1.647
1.642
1.637
1.642
1.652
1.647
1.632
1.637
1.647
1.642
1.632
1.637
1.647
1.642
1.628
1.628
1.642
1.647
1.652
1.657
1.676
1.691
1.681
1.681
1.696
1.706
1.701
1.691
1.691
1.701
1.691
1.681
1.696
1.716
1.72
1.716
1.72
1.73
1.73
1.716
1.716
1.725
1.72
1.711
1.701
1.706
1.706
1.681
1.672
1.676
1.672
1.657
1.647
1.647
1.657
1.652
1.647
1.662
1.672
1.667
1.657
1.652
1.662
1.657
1.632
1.632
1.642
1.632
1.623
1.618
1.628
1.632
1.623
1.623
1.647
1.667
1.686
1.716
1.764
1.833
1.882
1.931
2.004
2.072
2.116
2.146
2.155
2.151
2.111
2.038
1.96
1.887
1.794
1.706
1.632
1.593
1.574
1.549
1.559
1.598
1.632
1.652
1.662
1.672
1.672
1.657
1.637
1.642
1.647
1.642
1.632
1.632
1.647
1.647
1.632
1.637
1.647
1.647
1.637
1.637
1.642
1.652
1.642
1.642
1.657
1.657
1.652
1.642
1.647
1.657
1.647
1.632
1.642
1.657
1.657
1.657
1.662
1.672
1.667
1.652
1.652
1.667
1.672
1.667
1.667
1.681
1.691
1.681
1.681
1.696
1.706
1.701
1.696
1.696
1.706
1.696
1.686
1.696
1.716
1.716
1.716
1.72
1.73
1.73
1.72
1.725
1.74
1.745
1.74
1.745
1.755
1.764
1.755
1.755
1.769
1.774
1.769
1.769
1.779
1.794
1.794
1.789
1.804
1.818
1.818
1.818
1.823
1.833
1.833
1.823
1.828
1.843
1.843
1.828
1.828
1.838
1.848
1.833
1.833
1.852
1.862
1.867
1.862
1.867
1.872
1.857
1.848
1.852
1.862
1.852
1.843
1.838
1.838
1.833
1.808
1.804
1.808
1.799
1.779
1.769
1.769
1.764
1.74
1.73
1.73
1.73
1.72
1.706
1.706
1.711
1.696
1.676
1.681
1.681
1.672
1.662
1.657
1.662
1.657
1.642
1.642
1.657
1.657
1.652
1.647
1.657
1.662
1.647
1.637
1.642
1.647
1.642
1.637
1.637
1.647
1.637
1.628
1.642
1.657
1.652
1.647
1.647
1.657
1.652
1.632
1.632
1.642
1.637
1.632
1.628
1.637
1.647
1.637
1.637
1.652
1.657
1.652
1.642
1.642
1.647
1.637
1.623
1.632
1.637
1.637
1.632
1.637
1.647
1.647
1.632
1.632
1.642
1.642
1.628
1.618
1.628
1.637
1.623
1.623
1.632
1.637
1.628
1.623
1.632
1.647
1.637
1.628
1.637
1.642
1.637
1.628
1.628
1.637
1.632
1.618
1.628
1.647
1.652
1.647
1.642
1.647
1.647
1.628
1.618
1.628
1.628
1.628
1.623
1.637
1.652
1.647
1.642
1.657
1.672
1.676
1.676
1.681
1.691
1.691
1.681
1.686
1.701
1.701
1.701
1.706
1.716
1.725
1.711
1.711
1.72
1.725
1.716
1.706
1.706
1.711
1.701
1.691
1.701
1.711
1.701
1.686
1.676
1.681
1.672
1.652
1.642
1.647
1.637
1.628
1.628
1.637
1.647
1.632
1.632
1.647
1.657
1.652
1.642
1.647
1.652
1.642
1.628
1.637
1.647
1.642
1.632
1.628
1.628
1.628
1.618
1.632
1.672
1.706
1.74
1.794
1.862
1.931
1.975
2.023
2.077
2.107
2.107
2.087
2.058
2.019
1.94
1.848
1.769
1.691
1.623
1.569
1.54
1.54
1.544
1.554
1.588
1.632
1.657
1.667
1.662
1.667
1.667
1.642
1.632
1.637
1.637
1.632
1.628
1.637
1.647
1.637
1.632
1.637
1.647
1.642
1.637
1.632
1.642
1.637
1.618
1.623
1.637
1.642
1.642
1.647
1.657
1.667
1.652
1.652
1.662
1.667
1.662
1.657
1.662
1.672
1.667
1.657
1.667
1.681
1.676
1.672
1.676
1.686
1.681
1.667
1.672
1.686
1.691
1.691
1.691
1.701
1.706
1.696
1.691
1.711
1.711
1.711
1.706
1.716
1.73
1.73
1.725
1.74
1.76
1.76
1.755
1.755
1.769
1.769
1.755
1.76
1.769
1.769
1.769
1.774
1.784
1.794
1.789
1.794
1.808
1.823
1.823
1.823
1.828
1.838
1.828
1.818
1.828
1.838
1.833
1.828
1.833
1.848
1.848
1.833
1.843
1.857
1.857
1.852
1.852
1.857
1.857
1.838
1.833
1.838
1.838
1.823
1.804
1.799
1.794
1.774
1.75
1.755
1.755
1.74
1.725
1.72
1.72
1.711
1.686
1.681
1.686
1.681
1.667
1.662
1.667
1.676
1.652
1.652
1.662
1.667
1.657
1.647
1.652
1.657
1.647
1.637
1.647
1.657
1.652
1.642
1.637
1.647
1.642
1.628
1.632
1.642
1.642
1.637
1.637
1.647
1.652
1.637
1.632
1.642
1.647
1.642
1.637
1.642
1.652
1.642
1.632
1.642
1.652
1.647
1.642
1.637
1.647
1.642
1.628
1.628
1.642
1.637
1.632
1.632
1.642
1.647
1.637
1.637
1.652
1.657
1.647
1.637
1.642
1.642
1.632
1.618
1.628
1.642
1.637
1.637
1.642
1.657
1.657
1.642
1.642
1.652
1.642
1.632
1.632
1.642
1.647
1.632
1.632
1.642
1.642
1.632
1.628
1.628
1.632
1.623
1.613
1.623
1.632
1.632
1.628
1.632
1.642
1.642
1.632
1.642
1.667
1.672
1.672
1.667
1.672
1.676
1.662
1.662
1.676
1.686
1.681
1.681
1.691
1.706
1.701
1.691
1.701
1.711
1.711
1.701
1.701
1.711
1.706
1.691
1.691
1.701
1.691
1.676
1.662
1.662
1.657
1.632
1.623
1.632
1.637
1.632
1.632
1.642
1.647
1.637
1.623
1.632
1.632
1.628
1.623
1.618
1.628
1.628
1.608
1.613
1.628
1.632
1.628
1.623
1.628
1.632
1.618
1.618
1.642
1.667
1.691
1.73
1.784
1.852
1.906
1.955
2.014
2.063
2.077
2.072
2.053
2.028
1.97
1.887
1.808
1.74
1.667
1.598
1.554
1.544
1.544
1.544
1.564
1.603
1.632
1.642
1.647
1.657
1.662
1.647
1.628
1.632
1.642
1.637
1.632
1.637
1.647
1.642
1.628
1.632
1.642
1.642
1.637
1.637
1.647
1.652
1.642
1.642
1.657
1.662
1.652
1.642
1.642
1.657
1.647
1.637
1.647
1.657
1.657
1.657
1.662
1.672
1.667
1.652
1.657
1.672
1.672
1.667
1.667
1.672
1.676
1.667
1.667
1.686
1.691
1.691
1.691
1.696
1.706
1.696
1.691
1.701
1.711
1.706
1.706
1.711
1.725
1.725
1.716
1.72
1.735
1.735
1.73
1.73
1.745
1.755
1.74
1.74
1.76
1.779
1.789
1.789
1.799
1.808
1.794
1.789
1.794
1.804
1.799
1.794
1.804
1.813
1.813
1.808
1.818
1.833
1.833
1.828
1.823
1.828
1.833
1.818
1.818
1.838
1.848
1.843
1.833
1.838
1.843
1.828
1.813
1.818
1.818
1.813
1.804
1.799
1.804
1.794
1.769
1.764
1.76
1.74
1.72
1.706
1.706
1.701
1.676
1.667
1.672
1.676
1.662
1.657
1.662
1.662
1.647
1.632
1.642
1.647
1.637
1.632
1.637
1.647
1.642
1.628
1.637
1.642
1.637
1.628
1.618
1.623
1.628
1.608
1.608
1.623
1.632
1.628
1.628
1.642
1.652
1.637
1.623
1.628
1.637
1.637
1.632
1.632
1.642
1.637
1.628
1.637
1.647
1.642
1.632
1.632
1.637
1.642
1.628
1.623
1.637
1.642
1.637
1.632
1.642
1.652
1.642
1.637
1.642
1.647
1.637
1.623
1.623
1.628
1.623
1.608
1.618
1.632
1.637
1.632
1.623
1.623
1.628
1.613
1.613
1.623
1.632
1.628
1.623
1.632
1.642
1.628
1.613
1.618
1.628
1.623
1.618
1.623
1.632
1.632
1.623
1.628
1.642
1.642
1.632
1.632
1.637
1.642
1.623
1.628
1.637
1.637
1.632
1.628
1.632
1.642
1.632
1.623
1.637
1.647
1.647
1.647
1.657
1.676
1.681
1.672
1.681
1.696
1.696
1.686
1.681
1.686
1.691
1.676
1.681
1.696
1.706
1.706
1.701
1.706
1.711
1.696
1.686
1.696
1.701
1.696
1.686
1.686
1.686
1.676
1.652
1.647
1.647
1.642
1.628
1.623
1.628
1.632
1.618
1.613
1.632
1.637
1.632
1.628
1.632
1.642
1.632
1.623
1.642
1.647
1.632
1.618
1.613
1.618
1.608
1.593
1.593
1.613
1.628
1.652
1.686
1.75
1.808
1.852
1.911
1.979
2.033
2.067
2.087
2.102
2.097
2.053
1.989
1.931
1.852
1.764
1.672
1.608
1.569
1.54
1.525
1.544
1.579
1.603
1.618
1.632
1.652
1.652
1.632
1.623
1.628
1.628
1.623
1.623
1.632
1.637
1.623
1.613
1.623
1.632
1.628
1.623
1.623
1.628
1.623
1.613
1.623
1.637
1.637
1.632
1.632
1.642
1.642
1.628
1.628
1.642
1.642
1.637
1.632
1.637
1.647
1.642
1.637
1.647
1.652
1.652
1.652
1.652
1.667
1.662
1.652
1.657
1.667
1.667
1.662
1.667
1.676
1.686
1.672
1.672
1.691
1.701
1.701
1.691
1.696
1.701
1.696
1.691
1.706
1.716
1.716
1.72
1.725
1.745
1.745
1.735
1.735
1.745
1.745
1.745
1.75
1.764
1.774
1.769
1.779
1.799
1.808
1.808
1.804
1.804
1.813
1.804
1.799
1.813
1.823
1.823
1.818
1.828
1.843
1.843
1.833
1.843
1.857
1.857
1.852
1.852
1.857
1.862
1.838
1.833
1.843
1.843
1.828
1.813
1.813
1.813
1.794
1.774
1.769
1.76
1.74
1.725
1.716
1.716
1.706
1.686
1.681
1.691
1.686
1.672
1.667
1.667
1.662
1.642
1.632
1.642
1.637
1.628
1.613
1.618
1.623
1.613
1.603
1.618
1.623
1.623
1.618
1.623
1.632
1.628
1.613
1.618
1.628
1.628
1.618
1.613
1.618
1.618
1.598
1.598
1.613
1.618
1.618
1.613
1.623
1.637
1.623
1.618
1.623
1.623
1.613
1.603
1.603
1.608
1.603
1.593
1.603
1.618
1.623
1.618
1.623
1.628
1.628
1.608
1.608
1.618
1.623
1.618
1.613
1.623
1.632
1.623
1.613
1.618
1.623
1.618
1.608
1.613
1.628
1.623
1.613
1.618
1.628
1.623
1.613
1.608
1.618
1.623
1.613
1.613
1.628
1.632
1.628
1.628
1.637
1.642
1.628
1.613
1.618
1.623
1.613
1.603
1.603
1.613
1.613
1.603
1.613
1.628
1.628
1.623
1.623
1.632
1.632
1.618
1.618
1.637
1.642
1.637
1.632
1.637
1.652
1.647
1.652
1.672
1.686
1.686
1.681
1.686
1.696
1.691
1.676
1.686
1.701
1.701
1.701
1.701
1.711
1.711
1.696
1.691
1.701
1.701
1.696
1.691
1.691
1.696
1.681
1.667
1.667
1.667
1.657
1.642
1.637
1.637
1.628
1.613
1.613
1.628
1.628
1.623
1.623
1.632
1.632
1.618
1.623
1.637
1.637
1.628
1.623
1.628
1.637
1.628
1.618
1.623
1.623
1.613
1.608
1.618
1.642
1.667
1.701
1.76
1.833
1.901
1.965
2.033
2.092
2.141
2.151
2.155
2.151
2.111
2.038
1.945
1.862
1.774
1.676
1.598
1.569
1.554
1.554
1.564
1.588
1.623
1.637
1.637
1.642
1.652
1.642
1.628
1.618
1.623
1.623
1.608
1.603
1.613
1.613
1.608
1.608
1.618
1.628
1.618
1.613
1.628
1.637
1.637
1.628
1.623
1.632
1.628
1.613
1.623
1.637
1.637
1.632
1.632
1.642
1.647
1.632
1.628
1.637
1.637
1.632
1.632
1.642
1.652
1.642
1.642
1.652
1.662
1.657
1.652
1.657
1.667
1.667
1.657
1.667
1.681
1.681
1.672
1.672
1.681
1.691
1.676
1.676
1.691
1.696
1.691
1.691
1.701
1.716
1.711
1.716
1.74
1.755
1.755
1.755
1.76
1.769
1.76
1.745
1.755
1.769
1.774
1.774
1.779
1.799
1.804
1.794
1.799
1.813
1.818
1.813
1.813
1.823
1.833
1.823
1.818
1.838
1.848
1.848
1.843
1.848
1.857
1.857
1.843
1.848
1.862
1.852
1.838
1.833
1.843
1.838
1.818
1.808
1.813
1.804
1.784
1.769
1.764
1.76
1.735
1.716
1.716
1.711
1.696
1.681
1.681
1.686
1.672
1.652
1.652
1.662
1.657
1.642
1.637
1.642
1.637
1.618
1.613
1.623
1.623
1.613
1.603
1.608
1.618
1.608
1.603
1.613
1.623
1.618
1.613
1.618
1.623
1.618
1.608
1.618
1.632
1.632
1.618
1.608
1.613
1.608
1.588
1.588
1.598
1.608
1.608
1.613
1.623
1.637
1.632
1.628
1.637
1.642
1.632
1.623
1.623
1.628
1.618
1.598
1.603
1.613
1.608
1.603
1.608
1.618
1.618
1.603
1.608
1.618
1.623
1.623
1.618
1.628
1.632
1.618
1.608
1.618
1.623
1.613
1.608
1.613
1.623
1.623
1.608
1.613
1.628
1.623
1.618
1.618
1.628
1.628
1.618
1.618
1.632
1.632
1.623
1.618
1.623
1.632
1.623
1.613
1.623
1.632
1.628
1.623
1.623
1.628
1.618
1.603
1.613
1.623
1.623
1.618
1.618
1.632
1.637
1.623
1.628
1.637
1.647
1.642
1.642
1.657
1.672
1.662
1.662
1.681
1.696
1.696
1.686
1.686
1.701
1.701
1.696
1.701
1.711
1.706
1.696
1.696
1.701
1.691
1.672
1.672
1.681
1.686
1.676
1.662
1.662
1.662
1.637
1.628
1.632
1.637
1.628
1.618
1.618
1.628
1.623
1.608
1.608
1.618
1.618
1.618
1.618
1.632
1.637
1.618
1.613
1.618
1.618
1.603
1.598
1.598
1.603
1.593
1.598
1.628
1.657
1.686
1.73
1.799
1.877
1.94
1.994
2.063
2.121
2.155
2.165
2.16
2.136
2.082
1.994
1.901
1.818
1.725
1.632
1.564
1.535
1.53
1.53
1.544
1.588
1.623
1.637
1.642
1.647
1.642
1.623
1.598
1.598
1.603
1.598
1.593
1.593
1.608
1.608
1.588
1.593
1.608
1.618
1.618
1.618
1.628
1.628
1.613
1.603
1.613
1.613
1.608
1.598
1.603
1.613
1.613
1.603
1.608
1.623
1.628
1.623
1.623
1.632
1.637
1.623
1.623
1.637
1.642
1.637
1.637
1.642
1.647
1.637
1.632
1.647
1.652
1.647
1.642
1.652
1.662
1.662
1.657
1.667
1.681
1.681
1.681
1.686
1.701
1.706
1.691
1.691
1.706
1.711
1.706
1.706
1.72
1.73
1.725
1.725
1.74
1.755
1.75
1.745
1.755
1.769
1.764
1.755
1.764
1.779
1.784
1.784
1.784
1.794
1.794
1.784
1.789
1.808
1.813
1.813
1.813
1.828
1.838
1.833
1.828
1.838
1.848
1.838
1.833
1.833
1.843
1.833
1.813
1.818
1.823
1.813
1.799
1.794
1.794
1.784
1.76
1.755
1.755
1.745
1.725
1.711
1.706
1.706
1.681
1.672
1.672
1.672
1.662
1.647
1.647
1.647
1.632
1.613
1.613
1.618
1.613
1.608
1.608
1.623
1.623
1.608
1.603
1.613
1.608
1.598
1.598
1.603
1.613
1.603
1.598
1.613
1.623
1.623
1.613
1.613
1.618
1.608
1.588
1.593
1.603
1.603
1.603
1.603
1.618
1.618
1.608
1.603
1.613
1.613
1.603
1.598
1.603
1.608
1.598
1.593
1.608
1.613
1.613
1.603
1.603
1.613
1.603
1.593
1.598
1.608
1.608
1.598
1.603
1.613
1.618
1.603
1.603
1.613
1.618
1.608
1.598
1.608
1.608
1.593
1.588
1.603
1.608
1.608
1.608
1.618
1.623
1.613
1.603
1.608
1.618
1.618
1.608
1.613
1.618
1.618
1.598
1.598
1.608
1.608
1.603
1.598
1.608
1.618
1.608
1.608
1.618
1.623
1.618
1.613
1.613
1.623
1.613
1.603
1.608
1.618
1.613
1.608
1.608
1.623
1.628
1.613
1.618
1.642
1.652
1.647
1.647
1.657
1.667
1.657
1.657
1.667
1.676
1.672
1.667
1.672
1.686
1.686
1.681
1.691
1.706
1.706
1.701
1.701
1.706
1.706
1.686
1.686
1.696
1.696
1.681
1.667
1.667
1.667
1.642
1.628
1.632
1.632
1.628
1.618
1.623
1.628
1.623
1.608
1.613
1.628
1.623
1.618
1.618
1.628
1.628
1.608
1.608
1.618
1.618
1.608
1.603
1.608
1.613
1.593
1.588
1.603
1.623
1.637
1.667
1.716
1.789
1.848
1.901
1.979
2.053
2.107
2.136
2.155
2.16
2.136
2.067
1.999
1.926
1.833
1.73
1.637
1.579
1.54
1.51
1.505
1.54
1.574
1.598
1.618
1.642
1.652
1.642
1.623
1.623
1.632
1.623
1.618
1.613
1.623
1.623
1.608
1.608
1.613
1.613
1.603
1.598
1.608
1.618
1.608
1.608
1.623
1.628
1.628
1.628
1.632
1.642
1.632
1.623
1.628
1.642
1.637
1.632
1.632
1.642
1.642
1.623
1.623
1.642
1.642
1.642
1.642
1.652
1.662
1.652
1.647
1.657
1.667
1.662
1.657
1.662
1.676
1.672
1.662
1.672
1.681
1.681
1.676
1.676
1.691
1.696
1.681
1.686
1.706
1.711
1.711
1.711
1.725
1.735
1.725
1.725
1.745
1.755
1.755
1.75
1.76
1.774
1.774
1.769
1.784
1.794
1.789
1.784
1.789
1.799
1.804
1.789
1.794
1.808
1.818
1.813
1.813
1.823
1.823
1.808
1.808
1.823
1.838
1.838
1.833
1.843
1.852
1.843
1.833
1.838
1.838
1.833
1.818
1.808
1.808
1.804
1.779
1.769
1.774
1.764
1.75
1.735
1.725
1.716
1.691
1.676
1.681
1.681
1.672
1.662
1.657
1.657
1.642
1.628
1.632
1.642
1.637
1.632
1.628
1.637
1.642
1.628
1.628
1.637
1.632
1.623
1.613
1.618
1.623
1.608
1.603
1.613
1.623
1.623
1.618
1.623
1.632
1.623
1.608
1.613
1.623
1.618
1.613
1.613
1.628
1.623
1.608
1.608
1.618
1.623
1.618
1.618
1.628
1.632
1.623
1.623
1.637
1.642
1.637
1.628
1.623
1.628
1.613
1.593
1.593
1.603
1.603
1.603
1.608
1.618
1.623
1.608
1.613
1.628
1.628
1.618
1.608
1.613
1.618
1.608
1.603
1.613
1.618
1.613
1.608
1.608
1.618
1.613
1.603
1.613
1.623
1.618
1.613
1.618
1.628
1.632
1.613
1.613
1.623
1.618
1.613
1.608
1.613
1.618
1.603
1.598
1.618
1.628
1.623
1.618
1.623
1.632
1.623
1.608
1.618
1.632
1.632
1.628
1.628
1.642
1.637
1.623
1.623
1.642
1.642
1.647
1.652
1.667
1.686
1.676
1.676
1.691
1.696
1.686
1.676
1.681
1.691
1.686
1.676
1.691
1.706
1.706
1.696
1.696
1.706
1.706
1.686
1.691
1.701
1.696
1.686
1.672
1.667
1.657
1.632
1.618
1.623
1.628
1.618
1.613
1.623
1.637
1.632
1.623
1.628
1.637
1.642
1.637
1.637
1.647
1.642
1.628
1.623
1.628
1.628
1.618
1.608
1.613
1.618
1.608
1.613
1.637
1.662
1.686
1.725
1.784
1.852
1.911
1.96
2.023
2.082
2.107
2.107
2.092
2.067
2.014
1.921
1.838
1.76
1.676
1.598
1.544
1.525
1.53
1.525
1.544
1.584
1.618
1.628
1.637
1.642
1.647
1.632
1.613
1.623
1.632
1.632
1.632
1.632
1.642
1.642
1.628
1.628
1.642
1.642
1.632
1.628
1.632
1.637
1.623
1.613
1.623
1.632
1.628
1.623
1.628
1.642
1.637
1.632
1.642
1.657
1.652
1.647
1.642
1.652
1.657
1.642
1.642
1.652
1.657
1.647
1.642
1.652
1.662
1.652
1.652
1.672
1.681
1.686
1.686
1.691
1.701
1.691
1.676
1.681
1.686
1.686
1.681
1.686
1.706
1.711
1.706
1.711
1.73
1.735
1.735
1.735
1.745
1.75
1.735
1.735
1.755
1.764
1.769
1.764
1.774
1.784
1.779
1.774
1.784
1.794
1.794
1.789
1.789
1.804
1.813
1.804
1.808
1.823
1.823
1.813
1.813
1.823
1.828
1.818
1.808
1.823
1.828
1.828
1.833
1.843
1.852
1.843
1.833
1.833
1.838
1.823
1.804
1.794
1.789
1.779
1.76
1.76
1.764
1.755
1.735
1.72
1.72
1.711
1.691
1.676
1.676
1.676
1.662
1.652
1.647
1.652
1.642
1.628
1.632
1.642
1.637
1.628
1.628
1.637
1.632
1.613
1.613
1.628
1.628
1.618
1.613
1.618
1.623
1.608
1.608
1.618
1.628
1.628
1.623
1.632
1.642
1.632
1.618
1.623
1.632
1.632
1.623
1.623
1.632
1.628
1.613
1.618
1.628
1.628
1.618
1.613
1.623
1.628
1.618
1.613
1.623
1.628
1.623
1.618
1.623
1.632
1.618
1.603
1.608
1.613
1.608
1.603
1.603
1.618
1.618
1.603
1.608
1.618
1.618
1.613
1.603
1.608
1.613
1.593
1.588
1.603
1.608
1.603
1.598
1.603
1.613
1.603
1.593
1.603
1.608
1.608
1.603
1.603
1.613
1.618
1.603
1.608
1.623
1.623
1.613
1.608
1.613
1.618
1.603
1.593
1.608
1.613
1.613
1.608
1.613
1.623
1.618
1.608
1.618
1.632
1.628
1.618
1.618
1.628
1.632
1.623
1.632
1.647
1.657
1.652
1.652
1.667
1.672
1.657
1.652
1.667
1.676
1.672
1.676
1.686
1.701
1.701
1.691
1.701
1.706
1.706
1.696
1.691
1.691
1.686
1.667
1.667
1.676
1.667
1.652
1.637
1.637
1.632
1.618
1.608
1.623
1.632
1.628
1.628
1.637
1.647
1.637
1.623
1.628
1.632
1.628
1.618
1.618
1.628
1.628
1.613
1.613
1.623
1.618
1.608
1.603
1.618
1.632
1.642
1.667
1.72
1.779
1.833
1.887
1.95
2.014
2.048
2.067
2.082
2.082
2.048
1.989
1.916
1.843
1.755
1.657
1.593
1.559
1.535
1.525
1.535
1.564
1.593
1.603
1.618
1.637
1.647
1.642
1.632
1.632
1.632
1.623
1.608
1.613
1.623
1.618
1.613
1.618
1.632
1.632
1.623
1.628
1.637
1.637
1.623
1.618
1.623
1.628
1.618
1.618
1.632
1.637
1.632
1.628
1.637
1.647
1.642
1.628
1.642
1.652
1.647
1.642
1.642
1.647
1.647
1.632
1.642
1.657
1.667
1.662
1.667
1.676
1.681
1.672
1.667
1.681
