Num1
1.637
1.652
1.672
1.652
1.632
1.647
1.672
1.676
1.662
1.662
1.676
1.672
1.642
1.647
1.662
1.667
1.657
1.662
1.686
1.696
1.667
1.662
1.676
1.681
1.672
1.657
1.667
1.686
1.672
1.657
1.672
1.696
1.701
1.696
1.706
1.73
1.72
1.691
1.681
1.691
1.686
1.667
1.667
1.686
1.701
1.686
1.686
1.716
1.735
1.73
1.716
1.725
1.745
1.73
1.716
1.73
1.75
1.75
1.74
1.74
1.76
1.755
1.725
1.72
1.74
1.745
1.735
1.735
1.755
1.769
1.75
1.745
1.764
1.769
1.76
1.745
1.75
1.764
1.75
1.725
1.74
1.755
1.755
1.74
1.745
1.769
1.769
1.745
1.745
1.76
1.76
1.74
1.725
1.735
1.74
1.711
1.706
1.73
1.745
1.74
1.73
1.74
1.755
1.725
1.691
1.691
1.706
1.701
1.681
1.681
1.706
1.701
1.667
1.662
1.681
1.681
1.662
1.652
1.667
1.672
1.647
1.637
1.657
1.667
1.662
1.647
1.662
1.676
1.657
1.632
1.637
1.652
1.647
1.637
1.642
1.672
1.672
1.652
1.657
1.681
1.681
1.662
1.652
1.662
1.667
1.642
1.632
1.652
1.667
1.662
1.652
1.667
1.691
1.672
1.647
1.652
1.672
1.662
1.647
1.652
1.681
1.676
1.652
1.652
1.676
1.681
1.672
1.662
1.676
1.681
1.647
1.632
1.652
1.667
1.662
1.647
1.657
1.676
1.657
1.637
1.652
1.667
1.667
1.657
1.657
1.681
1.686
1.662
1.662
1.681
1.681
1.667
1.657
1.676
1.696
1.672
1.662
1.672
1.686
1.681
1.667
1.676
1.691
1.672
1.647
1.662
1.686
1.681
1.667
1.667
1.691
1.691
1.667
1.667
1.686
1.686
1.676
1.672
1.691
1.701
1.672
1.657
1.672
1.681
1.667
1.652
1.662
1.681
1.672
1.647
1.657
1.676
1.672
1.662
1.662
1.681
1.676
1.652
1.652
1.676
1.686
1.676
1.667
1.686
1.696
1.672
1.662
1.681
1.696
1.696
1.691
1.706
1.725
1.711
1.686
1.701
1.72
1.72
1.706
1.711
1.735
1.735
1.711
1.706
1.73
1.735
1.72
1.716
1.73
1.745
1.725
1.716
1.73
1.74
1.725
1.706
1.706
1.72
1.701
1.676
1.676
1.691
1.686
1.667
1.667
1.686
1.691
1.662
1.657
1.681
1.691
1.681
1.667
1.676
1.681
1.647
1.628
1.642
1.657
1.647
1.637
1.657
1.691
1.696
1.686
1.696
1.711
1.701
1.676
1.672
1.681
1.672
1.642
1.642
1.672
1.686
1.691
1.701
1.74
1.774
1.769
1.779
1.823
1.867
1.896
1.935
1.994
2.063
2.087
2.087
2.097
2.107
2.063
1.989
1.906
1.828
1.73
1.613
1.544
1.515
1.491
1.471
1.481
1.53
1.579
1.593
1.613
1.657
1.681
1.681
1.672
1.686
1.706
1.686
1.662
1.662
1.676
1.667
1.647
1.642
1.657
1.652
1.632
1.637
1.662
1.672
1.667
1.662
1.676
1.691
1.667
1.652
1.672
1.691
1.691
1.686
1.696
1.716
1.706
1.676
1.681
1.696
1.691
1.676
1.672
1.696
1.706
1.686
1.686
1.706
1.706
1.691
1.681
1.696
1.711
1.676
1.657
1.672
1.686
1.681
1.672
1.676
1.701
1.696
1.686
1.701
1.73
1.735
1.725
1.725
1.74
1.735
1.706
1.696
1.716
1.72
1.716
1.716
1.735
1.745
1.72
1.706
1.725
1.74
1.74
1.73
1.74
1.764
1.76
1.735
1.735
1.755
1.75
1.735
1.735
1.75
1.755
1.735
1.74
1.764
1.769
1.76
1.745
1.764
1.779
1.755
1.73
1.74
1.755
1.745
1.725
1.73
1.745
1.735
1.716
1.72
1.74
1.745
1.73
1.725
1.74
1.73
1.701
1.686
1.691
1.691
1.676
1.662
1.672
1.681
1.657
1.637
1.647
1.662
1.652
1.642
1.652
1.676
1.662
1.637
1.637
1.652
1.647
1.632
1.628
1.647
1.652
1.632
1.632
1.657
1.667
1.652
1.642
1.657
1.672
1.642
1.628
1.642
1.662
1.652
1.637
1.647
1.667
1.657
1.632
1.642
1.662
1.662
1.647
1.642
1.657
1.662
1.637
1.632
1.652
1.667
1.652
1.652
1.672
1.691
1.672
1.657
1.662
1.667
1.652
1.632
1.632
1.647
1.632
1.613
1.623
1.647
1.657
1.652
1.657
1.676
1.676
1.647
1.642
1.657
1.667
1.652
1.642
1.657
1.667
1.642
1.628
1.647
1.667
1.672
1.662
1.667
1.681
1.672
1.647
1.652
1.672
1.672
1.657
1.657
1.676
1.672
1.637
1.632
1.657
1.672
1.672
1.672
1.696
1.72
1.696
1.672
1.672
1.672
1.652
1.632
1.632
1.657
1.657
1.642
1.652
1.676
1.681
1.667
1.662
1.676
1.681
1.652
1.647
1.667
1.676
1.672
1.667
1.686
1.701
1.676
1.662
1.672
1.691
1.681
1.667
1.667
1.691
1.681
1.657
1.667
1.686
1.686
1.676
1.676
1.691
1.696
1.667
1.662
1.681
1.691
1.681
1.676
1.696
1.72
1.706
1.696
1.716
1.73
1.72
1.711
1.716
1.735
1.72
1.701
1.711
1.73
1.73
1.716
1.706
1.72
1.716
1.681
1.662
1.667
1.672
1.662
1.657
1.676
1.696
1.681
1.667
1.686
1.701
1.686
1.662
1.652
1.662
1.647
1.618
1.623
1.652
1.662
1.657
1.657
1.681
1.681
1.657
1.642
1.657
1.662
1.652
1.642
1.657
1.676
1.662
1.647
1.672
1.696
1.711
1.716
1.74
1.784
1.804
1.808
1.848
1.906
1.95
1.989
2.033
2.087
2.121
2.097
2.077
2.048
1.999
1.911
1.804
1.725
1.657
1.569
1.505
1.491
1.505
1.51
1.52
1.559
1.613
1.642
1.637
1.657
1.681
1.686
1.667
1.652
1.662
1.657
1.628
1.618
1.647
1.662
1.662
1.652
1.672
1.691
1.681
1.667
1.681
1.696
1.696
1.686
1.696
1.716
1.706
1.676
1.676
1.701
1.701
1.686
1.676
1.696
1.711
1.681
1.676
1.701
1.716
1.711
1.696
1.711
1.725
1.706
1.686
1.706
1.725
1.72
1.711
1.72
1.75
1.75
1.73
1.735
1.75
1.745
1.725
1.716
1.735
1.745
1.72
1.72
1.755
1.774
1.769
1.755
1.76
1.769
1.735
1.711
1.72
1.745
1.745
1.74
1.755
1.784
1.779
1.75
1.75
1.769
1.774
1.76
1.764
1.789
1.804
1.779
1.764
1.774
1.779
1.764
1.745
1.755
1.774
1.755
1.735
1.75
1.769
1.76
1.74
1.745
1.769
1.764
1.74
1.74
1.764
1.76
1.74
1.73
1.745
1.745
1.711
1.696
1.716
1.725
1.711
1.696
1.706
1.72
1.691
1.667
1.676
1.691
1.681
1.667
1.667
1.691
1.681
1.647
1.642
1.667
1.667
1.652
1.642
1.657
1.667
1.632
1.623
1.637
1.642
1.623
1.608
1.618
1.637
1.618
1.598
1.613
1.632
1.632
1.618
1.618
1.642
1.632
1.598
1.598
1.618
1.623
1.608
1.608
1.628
1.642
1.613
1.608
1.628
1.642
1.637
1.623
1.637
1.657
1.642
1.623
1.628
1.647
1.637
1.628
1.642
1.672
1.672
1.642
1.642
1.662
1.657
1.632
1.618
1.632
1.642
1.613
1.603
1.628
1.642
1.642
1.637
1.652
1.676
1.657
1.628
1.637
1.652
1.642
1.628
1.628
1.652
1.647
1.618
1.623
1.652
1.662
1.652
1.642
1.662
1.667
1.637
1.628
1.652
1.667
1.657
1.642
1.657
1.676
1.657
1.628
1.637
1.657
1.662
1.657
1.662
1.691
1.691
1.667
1.667
1.686
1.686
1.662
1.642
1.652
1.657
1.632
1.628
1.652
1.672
1.662
1.647
1.657
1.681
1.662
1.637
1.642
1.662
1.662
1.652
1.662
1.691
1.696
1.662
1.662
1.686
1.691
1.672
1.662
1.681
1.696
1.672
1.667
1.686
1.706
1.706
1.691
1.701
1.716
1.701
1.667
1.672
1.681
1.676
1.662
1.662
1.686
1.696
1.667
1.662
1.676
1.676
1.647
1.632
1.647
1.657
1.628
1.618
1.642
1.662
1.657
1.647
1.652
1.662
1.637
1.608
1.608
1.618
1.608
1.588
1.593
1.623
1.623
1.593
1.598
1.618
1.628
1.613
1.608
1.628
1.642
1.613
1.598
1.613
1.632
1.632
1.628
1.657
1.701
1.706
1.701
1.725
1.755
1.774
1.784
1.813
1.872
1.916
1.931
1.975
2.033
2.058
2.043
2.004
1.955
1.887
1.774
1.672
1.613
1.564
1.52
1.486
1.491
1.52
1.525
1.53
1.569
1.613
1.632
1.632
1.647
1.681
1.686
1.652
1.652
1.672
1.667
1.647
1.632
1.647
1.657
1.632
1.618
1.637
1.657
1.647
1.637
1.652
1.676
1.667
1.642
1.652
1.676
1.676
1.662
1.662
1.691
1.686
1.657
1.657
1.676
1.691
1.676
1.667
1.691
1.711
1.681
1.667
1.686
1.701
1.696
1.686
1.696
1.725
1.716
1.691
1.696
1.711
1.706
1.686
1.681
1.706
1.716
1.691
1.701
1.73
1.745
1.73
1.72
1.73
1.735
1.701
1.681
1.701
1.725
1.73
1.725
1.735
1.764
1.755
1.73
1.735
1.75
1.745
1.73
1.73
1.755
1.76
1.74
1.74
1.764
1.774
1.76
1.75
1.774
1.789
1.76
1.74
1.76
1.774
1.764
1.75
1.755
1.774
1.76
1.73
1.74
1.76
1.76
1.745
1.745
1.769
1.769
1.74
1.735
1.755
1.76
1.74
1.725
1.735
1.74
1.711
1.691
1.701
1.716
1.706
1.696
1.696
1.711
1.691
1.657
1.657
1.676
1.672
1.657
1.657
1.681
1.686
1.657
1.652
1.667
1.662
1.647
1.632
1.647
1.662
1.637
1.623
1.637
1.657
1.647
1.632
1.637
1.657
1.647
1.618
1.623
1.642
1.642
1.628
1.628
1.662
1.672
1.647
1.647
1.667
1.672
1.652
1.642
1.657
1.672
1.652
1.642
1.667
1.691
1.681
1.662
1.662
1.672
1.652
1.623
1.628
1.652
1.647
1.628
1.623
1.637
1.642
1.618
1.618
1.642
1.657
1.657
1.657
1.681
1.701
1.672
1.647
1.657
1.672
1.662
1.652
1.657
1.686
1.681
1.657
1.667
1.686
1.686
1.672
1.672
1.691
1.691
1.652
1.642
1.662
1.672
1.662
1.647
1.662
1.686
1.662
1.647
1.662
1.676
1.672
1.657
1.662
1.686
1.672
1.642
1.647
1.667
1.667
1.657
1.657
1.672
1.672
1.632
1.623
1.652
1.667
1.657
1.652
1.672
1.696
1.676
1.657
1.672
1.681
1.667
1.647
1.652
1.676
1.672
1.652
1.662
1.691
1.696
1.686
1.686
1.716
1.725
1.686
1.676
1.696
1.701
1.691
1.681
1.701
1.716
1.696
1.676
1.691
1.706
1.696
1.676
1.681
1.701
1.686
1.662
1.676
1.701
1.701
1.686
1.676
1.691
1.686
1.642
1.632
1.647
1.657
1.642
1.628
1.647
1.672
1.652
1.632
1.647
1.662
1.652
1.637
1.642
1.672
1.672
1.647
1.652
1.672
1.667
1.642
1.632
1.647
1.647
1.613
1.603
1.632
1.652
1.647
1.632
1.647
1.657
1.632
1.613
1.637
1.672
1.686
1.696
1.73
1.779
1.799
1.794
1.828
1.887
1.926
1.955
1.989
2.038
2.058
2.023
1.984
1.955
1.901
1.804
1.706
1.637
1.588
1.52
1.471
1.476
1.51
1.535
1.559
1.598
1.647
1.657
1.637
1.642
1.662
1.652
1.628
1.613
1.632
1.642
1.618
1.618
1.642
1.652
1.637
1.623
1.637
1.657
1.642
1.628
1.642
1.657
1.652
1.637
1.637
1.657
1.647
1.628
1.637
1.662
1.667
1.657
1.657
1.681
1.686
1.652
1.647
1.667
1.676
1.667
1.652
1.662
1.676
1.652
1.637
1.657
1.676
1.686
1.681
1.696
1.725
1.72
1.691
1.696
1.716
1.711
1.691
1.681
1.696
1.701
1.667
1.657
1.681
1.691
1.676
1.672
1.696
1.72
1.706
1.686
1.701
1.725
1.72
1.706
1.711
1.735
1.73
1.701
1.706
1.725
1.73
1.72
1.72
1.745
1.75
1.72
1.706
1.72
1.735
1.725
1.72
1.74
1.764
1.75
1.73
1.74
1.755
1.74
1.72
1.711
1.73
1.725
1.701
1.716
1.74
1.745
1.735
1.73
1.75
1.755
1.72
1.696
1.706
1.711
1.696
1.676
1.681
1.696
1.672
1.647
1.657
1.676
1.672
1.657
1.647
1.662
1.642
1.608
1.613
1.642
1.642
1.632
1.628
1.647
1.657
1.632
1.623
1.642
1.657
1.647
1.637
1.652
1.667
1.642
1.613
1.618
1.623
1.613
1.598
1.608
1.637
1.637
1.618
1.623
1.647
1.652
1.637
1.632
1.647
1.652
1.618
1.608
1.628
1.642
1.632
1.618
1.632
1.652
1.628
1.608
1.618
1.632
1.628
1.613
1.618
1.647
1.647
1.618
1.623
1.642
1.642
1.628
1.618
1.637
1.647
1.628
1.632
1.657
1.672
1.657
1.637
1.647
1.657
1.632
1.603
1.608
1.628
1.623
1.618
1.632
1.662
1.662
1.637
1.642
1.662
1.667
1.647
1.637
1.657
1.662
1.632
1.623
1.642
1.652
1.647
1.637
1.657
1.681
1.662
1.642
1.652
1.667
1.662
1.642
1.637
1.657
1.657
1.628
1.628
1.647
1.652
1.642
1.637
1.657
1.667
1.637
1.628
1.647
1.657
1.642
1.628
1.642
1.662
1.647
1.628
1.647
1.672
1.672
1.657
1.657
1.676
1.667
1.632
1.623
1.642
1.652
1.642
1.642
1.667
1.681
1.652
1.642
1.662
1.676
1.667
1.662
1.686
1.716
1.706
1.691
1.696
1.72
1.716
1.696
1.691
1.711
1.711
1.691
1.691
1.716
1.716
1.696
1.681
1.696
1.701
1.667
1.657
1.676
1.686
1.672
1.657
1.662
1.681
1.662
1.632
1.632
1.647
1.642
1.628
1.628
1.652
1.642
1.618
1.618
1.642
1.647
1.632
1.628
1.652
1.667
1.642
1.632
1.652
1.662
1.652
1.632
1.637
1.657
1.632
1.608
1.613
1.637
1.642
1.642
1.657
1.696
1.716
1.706
1.725
1.76
1.784
1.799
1.828
1.896
1.96
1.984
2.019
2.067
2.092
2.072
2.028
1.984
1.931
1.823
1.706
1.632
1.588
1.535
1.486
1.471
1.496
1.515
1.51
1.54
1.593
1.628
1.632
1.637
1.662
1.672
1.647
1.628
1.637
1.642
1.632
1.623
1.632
1.657
1.642
1.623
1.632
1.657
1.662
1.647
1.647
1.672
1.672
1.647
1.647
1.667
1.676
1.657
1.642
1.657
1.667
1.642
1.632
1.662
1.681
1.686
1.681
1.691
1.706
1.686
1.657
1.662
1.681
1.672
1.652
1.657
1.681
1.686
1.662
1.662
1.681
1.691
1.686
1.681
1.706
1.72
1.701
1.686
1.701
1.711
1.696
1.686
1.696
1.716
1.711
1.691
1.701
1.72
1.716
1.701
1.696
1.72
1.725
1.696
1.696
1.72
1.735
1.735
1.74
1.764
1.779
1.75
1.73
1.745
1.76
1.75
1.73
1.74
1.769
1.76
1.735
1.75
1.769
1.769
1.75
1.745
1.76
1.755
1.72
1.711
1.73
1.74
1.73
1.725
1.74
1.76
1.735
1.72
1.735
1.745
1.73
1.711
1.711
1.73
1.711
1.681
1.686
1.711
1.711
1.701
1.701
1.72
1.716
1.676
1.662
1.672
1.672
1.647
1.632
1.642
1.662
1.642
1.632
1.652
1.672
1.662
1.647
1.652
1.667
1.647
1.618
1.623
1.642
1.642
1.628
1.628
1.652
1.657
1.628
1.628
1.657
1.667
1.652
1.642
1.657
1.667
1.632
1.613
1.628
1.637
1.632
1.618
1.632
1.662
1.662
1.642
1.652
1.676
1.676
1.657
1.652
1.672
1.672
1.637
1.632
1.652
1.657
1.637
1.623
1.632
1.647
1.628
1.618
1.642
1.667
1.667
1.662
1.672
1.691
1.672
1.642
1.642
1.662
1.662
1.652
1.662
1.681
1.681
1.652
1.647
1.662
1.667
1.652
1.647
1.672
1.691
1.672
1.652
1.672
1.686
1.676
1.657
1.662
1.681
1.667
1.642
1.647
1.667
1.667
1.652
1.652
1.676
1.691
1.667
1.662
1.681
1.676
1.657
1.637
1.652
1.667
1.647
1.637
1.657
1.676
1.676
1.662
1.667
1.681
1.662
1.632
1.642
1.672
1.676
1.667
1.667
1.686
1.691
1.657
1.647
1.667
1.676
1.667
1.657
1.681
1.701
1.672
1.652
1.662
1.681
1.672
1.657
1.667
1.691
1.676
1.652
1.657
1.681
1.681
1.672
1.676
1.711
1.72
1.701
1.701
1.725
1.735
1.72
1.706
1.72
1.73
1.711
1.691
1.711
1.73
1.72
1.701
1.706
1.725
1.711
1.676
1.676
1.691
1.691
1.672
1.662
1.676
1.672
1.642
1.632
1.647
1.652
1.637
1.628
1.647
1.667
1.642
1.628
1.642
1.662
1.652
1.637
1.642
1.662
1.647
1.623
1.628
1.652
1.652
1.637
1.642
1.667
1.672
1.647
1.642
1.667
1.681
1.672
1.662
1.686
1.72
1.72
1.73
1.769
1.808
1.833
1.852
1.901
1.97
2.004
2.019
2.053
2.087
2.077
2.038
1.984
1.94
1.857
1.73
1.637
1.584
1.544
1.505
1.481
1.496
1.53
1.535
1.544
1.593
1.632
1.642
1.637
1.647
1.672
1.657
1.628
1.623
1.642
1.637
1.623
1.618
1.647
1.652
1.623
1.608
1.628
1.637
1.632
1.628
1.647
1.676
1.672
1.662
1.686
1.706
1.701
1.681
1.676
1.686
1.667
1.642
1.647
1.676
1.686
1.676
1.676
1.696
1.701
1.667
1.657
1.676
1.681
1.672
1.662
1.681
1.706
1.691
1.676
1.686
1.701
1.686
1.672
1.681
1.706
1.691
1.662
1.672
1.696
1.701
1.686
1.686
1.711
1.72
1.691
1.691
1.72
1.735
1.73
1.725
1.74
1.755
1.73
1.716
1.725
1.745
1.74
1.725
1.74
1.769
1.769
1.74
1.74
1.755
1.75
1.73
1.72
1.735
1.74
1.716
1.716
1.745
1.764
1.755
1.75
1.769
1.784
1.75
1.72
1.725
1.735
1.725
1.711
1.72
1.75
1.75
1.72
1.725
1.75
1.75
1.73
1.72
1.73
1.73
1.701
1.691
1.711
1.716
1.706
1.691
1.701
1.716
1.686
1.657
1.662
1.672
1.662
1.642
1.642
1.662
1.647
1.613
1.618
1.637
1.637
1.623
1.628
1.657
1.672
1.642
1.637
1.657
1.662
1.637
1.618
1.628
1.647
1.632
1.618
1.637
1.662
1.667
1.652
1.652
1.667
1.657
1.628
1.628
1.647
1.652
1.642
1.642
1.662
1.667
1.637
1.623
1.642
1.657
1.647
1.637
1.647
1.667
1.647
1.632
1.647
1.672
1.667
1.652
1.647
1.667
1.652
1.618
1.623
1.642
1.647
1.637
1.632
1.657
1.672
1.647
1.642
1.657
1.672
1.657
1.652
1.667
1.691
1.672
1.647
1.647
1.662
1.652
1.632
1.637
1.662
1.662
1.642
1.647
1.676
1.681
1.672
1.662
1.676
1.681
1.647
1.632
1.642
1.657
1.642
1.637
1.652
1.681
1.657
1.632
1.642
1.667
1.667
1.652
1.647
1.667
1.662
1.637
1.642
1.667
1.676
1.662
1.662
1.681
1.691
1.662
1.657
1.676
1.681
1.657
1.642
1.652
1.672
1.642
1.618
1.632
1.662
1.667
1.662
1.672
1.701
1.696
1.667
1.667
1.676
1.667
1.647
1.632
1.652
1.667
1.647
1.647
1.672
1.686
1.676
1.662
1.676
1.696
1.681
1.662
1.676
1.696
1.691
1.676
1.686
1.72
1.73
1.706
1.711
1.735
1.74
1.73
1.72
1.73
1.73
1.701
1.686
1.706
1.716
1.706
1.681
1.681
1.686
1.652
1.618
1.618
1.632
1.628
1.618
1.628
1.657
1.657
1.628
1.623
1.637
1.642
1.632
1.628
1.647
1.662
1.637
1.632
1.652
1.667
1.652
1.637
1.642
1.652
1.637
1.613
1.628
1.647
1.647
1.637
1.647
1.681
1.696
1.686
1.706
1.745
1.769
1.779
1.804
1.862
1.931
1.955
1.994
2.058
2.102
2.102
2.072
2.043
2.004
1.906
1.789
1.701
1.632
1.559
1.496
1.471
1.491
1.505
1.5
1.535
1.588
1.623
1.628
1.632
1.652
1.667
1.632
1.613
1.628
1.642
1.637
1.628
1.647
1.667
1.652
1.628
1.637
1.657
1.652
1.637
1.637
1.662
1.657
1.632
1.637
1.662
1.672
1.662
1.657
1.676
1.686
1.662
1.652
1.667
1.676
1.667
1.652
1.667
1.691
1.672
1.647
1.662
1.681
1.676
1.662
1.667
1.696
1.696
1.672
1.672
1.696
1.701
1.686
1.676
1.696
1.711
1.686
1.672
1.696
1.706
1.696
1.681
1.691
1.711
1.696
1.672
1.686
1.716
1.725
1.725
1.74
1.764
1.76
1.725
1.72
1.735
1.73
1.716
1.706
1.725
1.74
1.72
1.706
1.73
1.75
1.745
1.73
1.745
1.764
1.745
1.725
1.735
1.76
1.76
1.745
1.745
1.774
1.779
1.755
1.75
1.769
1.769
1.75
1.735
1.755
1.764
1.73
1.716
1.73
1.745
1.73
1.711
1.716
1.725
1.706
1.681
1.686
1.706
1.701
1.686
1.681
1.696
1.686
1.652
1.647
1.667
1.672
1.652
1.642
1.657
1.672
1.647
1.637
1.657
1.672
1.662
1.652
1.657
1.676
1.657
1.623
1.628
1.642
1.647
1.632
1.637
1.662
1.662
1.637
1.637
1.662
1.667
1.657
1.652
1.667
1.672
1.637
1.613
1.623
1.632
1.623
1.608
1.618
1.647
1.637
1.623
1.632
1.652
1.647
1.628
1.628
1.652
1.652
1.628
1.632
1.657
1.667
1.657
1.652
1.672
1.686
1.657
1.642
1.662
1.672
1.667
1.652
1.657
1.676
1.662
1.632
1.637
1.662
1.657
1.642
1.642
1.667
1.676
1.647
1.642
1.662
1.667
1.657
1.647
1.662
1.676
1.647
1.637
1.657
1.676
1.672
1.657
1.662
1.681
1.667
1.642
1.652
1.672
1.667
1.652
1.652
1.672
1.672
1.642
1.637
1.657
1.657
1.637
1.628
1.647
1.672
1.657
1.647
1.672
1.696
1.686
1.672
1.672
1.686
1.662
1.623
1.628
1.647
1.652
1.637
1.642
1.667
1.676
1.652
1.652
1.672
1.681
1.672
1.662
1.686
1.701
1.672
1.647
1.662
1.672
1.662
1.647
1.652
1.681
1.667
1.647
1.657
1.681
1.681
1.672
1.672
1.696
1.701
1.676
1.672
1.696
1.701
1.691
1.676
1.686
1.696
1.667
1.652
1.667
1.691
1.691
1.681
1.696
1.725
1.72
1.696
1.701
1.72
1.711
1.691
1.681
1.696
1.691
1.657
1.647
1.667
1.672
1.652
1.642
1.657
1.676
1.657
1.647
1.667
1.686
1.676
1.652
1.652
1.662
1.637
1.598
1.593
1.608
1.613
1.603
1.613
1.642
1.652
1.623
1.618
1.642
1.647
1.632
1.623
1.642
1.662
1.652
1.652
1.681
1.711
1.716
1.716
1.74
1.774
1.789
1.794
1.838
1.906
1.955
1.984
2.023
2.067
2.077
2.038
1.999
1.965
1.896
1.794
1.691
1.628
1.574
1.505
1.457
1.461
1.481
1.496
1.505
1.544
1.593
1.603
1.593
1.613
1.642
1.647
1.632
1.637
1.662
1.667
1.637
1.628
1.647
1.657
1.642
1.637
1.652
1.667
1.647
1.632
1.647
1.662
1.657
1.642
1.657
1.691
1.691
1.662
1.662
1.676
1.672
1.657
1.652
1.672
1.676
1.652
1.652
1.676
1.686
1.672
1.662
1.681
1.696
1.667
1.647
1.672
1.686
1.681
1.667
1.672
1.691
1.681
1.662
1.676
1.706
1.711
1.706
1.711
1.74
1.745
1.716
1.711
1.735
1.75
1.745
1.735
1.745
1.755
1.725
1.701
1.716
1.725
1.716
1.706
1.716
1.75
1.745
1.725
1.74
1.764
1.764
1.745
1.735
1.755
1.755
1.725
1.72
1.745
1.755
1.745
1.74
1.755
1.769
1.74
1.725
1.74
1.76
1.755
1.74
1.75
1.774
1.764
1.73
1.73
1.745
1.735
1.716
1.711
1.73
1.74
1.716
1.711
1.73
1.735
1.716
1.701
1.711
1.72
1.691
1.672
1.686
1.701
1.696
1.681
1.686
1.701
1.676
1.637
1.632
1.652
1.657
1.642
1.647
1.672
1.676
1.642
1.628
1.632
1.632
1.618
1.603
1.618
1.632
1.613
1.603
1.623
1.642
1.637
1.623
1.623
1.637
1.632
1.613
1.623
1.647
1.652
1.642
1.647
1.672
1.681
1.652
1.647
1.662
1.672
1.657
1.642
1.647
1.662
1.637
1.613
1.632
1.647
1.642
1.632
1.642
1.667
1.652
1.628
1.632
1.652
1.647
1.628
1.628
1.657
1.667
1.642
1.642
1.672
1.686
1.681
1.676
1.696
1.711
1.681
1.647
1.652
1.657
1.642
1.623
1.628
1.647
1.647
1.637
1.657
1.686
1.696
1.681
1.676
1.691
1.686
1.652
1.642
1.657
1.662
1.652
1.647
1.672
1.706
1.691
1.676
1.686
1.691
1.676
1.647
1.642
1.657
1.642
1.613
1.618
1.652
1.662
1.652
1.652
1.676
1.686
1.657
1.647
1.667
1.681
1.672
1.657
1.672
1.691
1.672
1.647
1.662
1.681
1.672
1.657
1.657
1.676
1.667
1.637
1.642
1.662
1.662
1.647
1.647
1.676
1.691
1.662
1.657
1.686
1.701
1.696
1.686
1.701
1.72
1.701
1.676
1.681
1.696
1.691
1.676
1.681
1.711
1.711
1.686
1.696
1.716
1.716
1.706
1.701
1.72
1.72
1.691
1.681
1.706
1.716
1.701
1.686
1.701
1.711
1.681
1.657
1.667
1.681
1.672
1.647
1.647
1.667
1.662
1.637
1.642
1.662
1.662
1.652
1.647
1.672
1.676
1.642
1.632
1.647
1.657
1.642
1.623
1.632
1.652
1.628
1.613
1.628
1.652
1.652
1.647
1.662
1.686
1.676
1.647
1.652
1.676
1.686
1.686
1.701
1.745
1.779
1.789
1.818
1.882
1.94
1.979
2.009
2.058
2.097
2.077
2.043
2.023
1.989
1.911
1.808
1.72
1.662
1.593
1.515
1.491
1.505
1.515
1.52
1.54
1.588
1.628
1.618
1.623
1.647
1.662
1.652
1.637
1.642
1.652
1.632
1.608
1.618
1.632
1.632
1.623
1.632
1.667
1.672
1.647
1.657
1.676
1.681
1.667
1.657
1.676
1.681
1.652
1.642
1.662
1.676
1.667
1.662
1.681
1.711
1.696
1.676
1.686
1.706
1.701
1.686
1.686
1.711
1.701
1.672
1.672
1.691
1.696
1.681
1.667
1.681
1.696
1.676
1.672
1.696
1.711
1.706
1.701
1.711
1.73
1.711
1.686
1.696
1.716
1.716
1.701
1.701
1.725
1.72
1.691
1.691
1.716
1.725
1.716
1.72
1.75
1.769
1.75
1.745
1.769
1.779
1.76
1.74
1.75
1.769
1.76
1.745
1.755
1.774
1.769
1.745
1.74
1.755
1.75
1.72
1.725
1.755
1.764
1.76
1.755
1.774
1.779
1.75
1.735
1.75
1.755
1.745
1.725
1.73
1.745
1.72
1.696
1.701
1.72
1.716
1.706
1.716
1.74
1.74
1.711
1.706
1.72
1.711
1.686
1.672
1.681
1.681
1.652
1.647
1.667
1.681
1.672
1.662
1.676
1.696
1.676
1.647
1.647
1.662
1.657
1.637
1.637
1.652
1.647
1.618
1.618
1.642
1.642
1.628
1.623
1.647
1.662
1.637
1.628
1.652
1.672
1.667
1.662
1.672
1.686
1.662
1.637
1.642
1.657
1.657
1.642
1.652
1.676
1.676
1.647
1.647
1.667
1.672
1.657
1.642
1.657
1.667
1.642
1.637
1.657
1.676
1.667
1.647
1.657
1.676
1.657
1.628
1.637
1.662
1.662
1.657
1.667
1.696
1.696
1.662
1.662
1.681
1.676
1.652
1.642
1.662
1.676
1.652
1.642
1.657
1.672
1.662
1.652
1.667
1.696
1.681
1.662
1.676
1.691
1.686
1.667
1.667
1.691
1.686
1.652
1.647
1.672
1.672
1.657
1.647
1.662
1.672
1.642
1.632
1.662
1.681
1.676
1.667
1.676
1.696
1.681
1.652
1.662
1.681
1.672
1.657
1.662
1.696
1.706
1.667
1.667
1.681
1.681
1.667
1.657
1.672
1.676
1.652
1.642
1.662
1.681
1.672
1.657
1.667
1.691
1.672
1.647
1.662
1.686
1.686
1.672
1.672
1.696
1.691
1.667
1.667
1.691
1.696
1.681
1.672
1.696
1.711
1.686
1.676
1.696
1.716
1.706
1.696
1.72
1.75
1.73
1.701
1.706
1.72
1.716
1.696
1.686
1.701
1.701
1.676
1.676
1.701
1.701
1.686
1.672
1.691
1.701
1.672
1.657
1.672
1.681
1.662
1.642
1.647
1.667
1.647
1.623
1.637
1.662
1.662
1.642
1.642
1.662
1.657
1.628
1.632
1.662
1.672
1.662
1.647
1.662
1.662
1.628
1.608
1.628
1.642
1.642
1.642
1.676
1.716
1.72
1.716
1.745
1.779
1.799
1.813
1.852
1.921
1.97
1.989
2.038
2.092
2.116
2.097
2.063
2.033
1.975
1.862
1.76
1.686
1.628
1.564
1.515
1.51
1.535
1.53
1.52
1.549
1.588
1.608
1.618
1.632
1.667
1.676
1.657
1.667
1.691
1.696
1.672
1.652
1.657
1.662
1.632
1.613
1.628
1.642
1.637
1.628
1.637
1.657
1.642
1.623
1.642
1.676
1.681
1.672
1.672
1.696
1.691
1.657
1.652
1.676
1.681
1.672
1.667
1.686
1.701
1.672
1.662
1.681
1.696
1.691
1.681
1.696
1.725
1.716
1.696
1.706
1.725
1.72
1.701
1.696
1.716
1.711
1.676
1.672
1.696
1.701
1.691
1.686
1.716
1.74
1.725
1.711
1.72
1.73
1.72
1.706
1.716
1.735
1.72
1.701
1.72
1.745
1.745
1.73
1.73
1.755
1.75
1.716
1.716
1.735
1.745
1.74
1.735
1.76
1.779
1.755
1.745
1.764
1.784
1.774
1.755
1.76
1.779
1.764
1.74
1.755
1.779
1.779
1.76
1.755
1.769
1.764
1.725
1.716
1.735
1.735
1.72
1.701
1.716
1.73
1.701
1.681
1.701
1.72
1.711
1.691
1.696
1.706
1.681
1.637
1.637
1.652
1.657
1.647
1.652
1.686
1.696
1.672
1.667
1.676
1.676
1.647
1.632
1.647
1.667
1.647
1.637
1.657
1.672
1.662
1.642
1.657
1.681
1.672
1.647
1.657
1.676
1.672
1.652
1.647
1.657
1.647
1.603
1.593
1.613
1.628
1.628
1.632
1.662
1.686
1.662
1.642
1.652
1.662
1.647
1.623
1.628
1.647
1.642
1.623
1.642
1.667
1.667
1.647
1.637
1.662
1.667
1.637
1.632
1.652
1.667
1.662
1.657
1.686
1.706
1.686
1.667
1.672
1.681
1.672
1.652
1.657
1.672
1.667
1.642
1.652
1.672
1.667
1.652
1.647
1.672
1.672
1.642
1.642
1.667
1.676
1.667
1.647
1.662
1.672
1.647
1.632
1.657
1.681
1.676
1.662
1.667
1.681
1.657
1.628
1.628
1.652
1.657
1.652
1.657
1.681
1.686
1.652
1.652
1.681
1.691
1.672
1.657
1.681
1.701
1.681
1.662
1.672
1.686
1.676
1.662
1.672
1.696
1.681
1.652
1.657
1.676
1.676
1.662
1.657
1.676
1.676
1.647
1.642
1.667
1.672
1.662
1.647
1.672
1.691
1.672
1.667
1.691
1.706
1.691
1.667
1.672
1.686
1.667
1.632
1.637
1.667
1.676
1.676
1.691
1.72
1.735
1.716
1.72
1.745
1.75
1.73
1.711
1.72
1.74
1.716
1.696
1.706
1.716
1.711
1.696
1.701
1.72
1.701
1.662
1.662
1.672
1.667
1.647
1.642
1.667
1.672
1.647
1.647
1.672
1.676
1.662
1.647
1.652
1.662
1.637
1.618
1.632
1.652
1.647
1.637
1.637
1.662
1.647
1.628
1.632
1.657
1.662
1.657
1.657
1.681
1.686
1.652
1.642
1.657
1.667
1.657
1.657
1.686
1.725
1.725
1.735
1.779
1.828
1.857
1.887
1.935
2.004
2.038
2.043
2.067
2.087
2.067
2.004
1.935
1.877
1.789
1.672
1.588
1.549
1.515
1.486
1.481
1.515
1.554
1.564
1.574
1.618
1.657
1.667
1.652
1.662
1.681
1.662
1.632
1.632
1.657
1.662
1.657
1.662
1.686
1.691
1.657
1.652
1.667
1.667
1.642
1.632
1.652
1.672
1.652
1.637
1.657
1.676
1.672
1.652
1.657
1.676
1.672
1.652
1.662
1.686
1.691
1.681
1.681
1.696
1.696
1.667
1.657
1.676
1.686
1.681
1.667
1.681
1.696
1.676
1.662
1.686
1.711
1.706
1.691
1.701
1.725
1.72
1.696
1.701
1.716
1.716
1.701
1.701
1.725
1.73
1.701
1.701
1.72
1.735
1.73
1.72
1.735
1.755
1.735
1.72
1.735
1.755
1.75
1.735
1.745
1.769
1.755
1.725
1.725
1.745
1.75
1.735
1.735
1.755
1.764
1.74
1.74
1.76
1.769
1.75
1.735
1.75
1.764
1.74
1.72
1.735
1.75
1.74
1.725
1.73
1.75
1.74
1.711
1.716
1.735
1.735
1.716
1.711
1.73
1.735
1.706
1.696
1.706
1.711
1.686
1.672
1.681
1.691
1.662
1.642
1.657
1.676
1.676
1.662
1.662
1.686
1.672
1.637
1.637
1.652
1.647
1.628
1.623
1.642
1.652
1.628
1.628
1.657
1.662
1.647
1.632
1.642
1.652
1.623
1.603
1.618
1.637
1.632
1.618
1.632
1.657
1.652
1.623
1.623
1.647
1.647
1.637
1.632
1.657
1.667
1.637
1.632
1.642
1.652
1.637
1.628
1.642
1.662
1.647
1.632
1.652
1.672
1.662
1.647
1.652
1.672
1.657
1.623
1.628
1.652
1.662
1.657
1.662
1.681
1.686
1.647
1.632
1.642
1.647
1.632
1.623
1.642
1.662
1.647
1.632
1.652
1.672
1.662
1.642
1.647
1.667
1.672
1.657
1.676
1.701
1.701
1.681
1.672
1.681
1.676
1.637
1.618
1.632
1.647
1.637
1.637
1.657
1.686
1.676
1.667
1.686
1.701
1.681
1.657
1.652
1.657
1.632
1.598
1.598
1.623
1.632
1.628
1.637
1.667
1.686
1.662
1.652
1.676
1.691
1.681
1.667
1.676
1.686
1.657
1.632
1.642
1.662
1.657
1.647
1.652
1.681
1.681
1.652
1.657
1.676
1.676
1.662
1.652
1.667
1.667
1.632
1.618
1.637
1.647
1.632
1.628
1.642
1.667
1.652
1.637
1.662
1.686
1.686
1.676
1.686
1.711
1.701
1.667
1.662
1.676
1.676
1.667
1.676
1.711
1.73
1.711
1.701
1.72
1.72
1.696
1.676
1.681
1.696
1.676
1.662
1.686
1.716
1.72
1.711
1.716
1.735
1.72
1.686
1.676
1.686
1.676
1.657
1.647
1.662
1.667
1.637
1.628
1.647
1.657
1.647
1.632
1.642
1.667
1.652
1.628
1.637
1.657
1.647
1.623
1.618
1.632
1.628
1.598
1.608
1.637
1.647
1.637
1.637
1.657
1.667
1.642
1.632
1.652
1.667
1.667
1.662
1.696
1.735
1.735
1.74
1.774
1.818
1.852
1.882
1.94
2.014
2.053
2.058
2.072
2.092
2.072
2.014
1.935
1.867
1.779
1.662
1.574
1.54
1.51
1.476
1.461
1.491
1.544
1.564
1.584
1.623
1.657
1.662
1.647
1.647
1.657
1.637
1.598
1.588
1.608
1.613
1.603
1.608
1.642
1.667
1.652
1.652
1.681
1.701
1.691
1.672
1.672
1.681
1.657
1.632
1.647
1.667
1.672
1.657
1.662
1.681
1.676
1.647
1.652
1.672
1.672
1.657
1.657
1.672
1.681
1.657
1.647
1.667
1.686
1.676
1.667
1.686
1.706
1.691
1.672
1.681
1.696
1.686
1.672
1.672
1.696
1.696
1.667
1.676
1.701
1.711
1.701
1.701
1.72
1.73
1.701
1.691
1.711
1.725
1.716
1.706
1.72
1.74
1.725
1.711
1.73
1.755
1.75
1.74
1.745
1.769
1.764
1.74
1.735
1.755
1.76
1.74
1.725
1.735
1.735
1.696
1.681
1.706
1.73
1.735
1.74
1.769
1.794
1.779
1.75
1.755
1.76
1.745
1.72
1.72
1.745
1.745
1.716
1.716
1.735
1.73
1.706
1.696
1.711
1.72
1.696
1.686
1.701
1.706
1.686
1.662
1.672
1.681
1.657
1.637
1.652
1.676
1.676
1.667
1.672
1.691
1.676
1.637
1.623
1.632
1.632
1.613
1.598
1.618
1.642
1.628
1.632
1.657
1.672
1.652
1.632
1.632
1.647
1.623
1.603
1.618
1.637
1.642
1.628
1.637
1.662
1.657
1.628
1.628
1.642
1.647
1.632
1.618
1.637
1.647
1.618
1.608
1.632
1.647
1.637
1.628
1.637
1.662
1.642
1.623
1.632
1.652
1.652
1.642
1.652
1.672
1.667
1.632
1.628
1.642
1.647
1.637
1.642
1.672
1.681
1.652
1.637
1.657
1.667
1.652
1.632
1.632
1.647
1.628
1.613
1.628
1.652
1.657
1.647
1.657
1.676
1.676
1.642
1.642
1.662
1.667
1.652
1.642
1.657
1.667
1.637
1.628
1.647
1.657
1.652
1.652
1.676
1.706
1.696
1.667
1.676
1.691
1.676
1.647
1.637
1.652
1.642
1.618
1.623
1.657
1.676
1.676
1.676
1.691
1.696
1.662
1.642
1.652
1.652
1.637
1.618
1.628
1.652
1.642
1.628
1.647
1.672
1.672
1.657
1.667
1.691
1.696
1.667
1.667
1.686
1.691
1.676
1.676
1.706
1.725
1.701
1.691
1.711
1.725
1.716
1.696
1.706
1.72
1.701
1.672
1.676
1.691
1.691
1.676
1.676
1.701
1.696
1.672
1.667
1.686
1.686
1.662
1.642
1.657
1.667
1.637
1.628
1.657
1.681
1.676
1.662
1.672
1.686
1.667
1.632
1.642
1.652
1.647
1.628
1.628
1.652
1.657
1.632
1.637
1.667
1.676
1.662
1.647
1.657
1.662
1.632
1.613
1.628
1.642
1.637
1.632
1.657
1.691
1.686
1.676
1.701
1.735
1.75
1.755
1.779
1.833
1.877
1.891
1.94
2.004
2.038
2.038
2.033
2.033
1.999
1.906
1.808
1.74
1.672
1.598
1.535
1.51
1.515
1.496
1.481
1.505
1.544
1.569
1.584
1.608
1.652
1.667
1.652
1.657
1.686
1.691
1.672
1.662
1.676
1.681
1.647
1.632
1.647
1.657
1.637
1.623
1.632
1.657
1.647
1.628
1.642
1.672
1.676
1.662
1.657
1.676
1.667
1.637
1.637
1.662
1.676
1.672
1.672
1.696
1.711
1.686
1.672
1.686
1.701
1.691
1.672
1.681
1.701
1.686
1.667
1.681
1.706
1.711
1.696
1.696
1.725
1.735
1.711
1.711
1.735
1.74
1.72
1.701
1.711
1.72
1.691
1.672
1.686
1.701
1.701
1.696
1.72
1.75
1.745
1.725
1.74
1.764
1.76
1.745
1.735
1.755
1.76
1.735
1.735
1.76
1.769
1.76
1.76
1.779
1.794
1.764
1.745
1.764
1.779
1.769
1.75
1.76
1.784
1.774
1.755
1.764
1.784
1.779
1.764
1.76
1.779
1.774
1.735
1.73
1.74
1.74
1.72
1.706
1.716
1.725
1.696
1.681
1.696
1.706
1.696
1.686
1.696
1.716
1.696
1.662
1.662
1.681
1.676
1.662
1.667
1.691
1.696
1.667
1.662
1.676
1.676
1.657
1.642
1.652
1.662
1.632
1.623
1.637
1.657
1.652
1.637
1.647
1.672
1.657
1.637
1.647
1.672
1.667
1.647
1.642
1.662
1.657
1.623
1.618
1.637
1.642
1.628
1.618
1.637
1.657
1.642
1.632
1.652
1.662
1.652
1.637
1.647
1.662
1.642
1.613
1.623
1.647
1.652
1.642
1.642
1.667
1.676
1.657
1.652
1.676
1.681
1.667
1.652
1.662
1.672
1.652
1.642
1.662
1.676
1.667
1.657
1.667
1.696
1.681
1.647
1.652
1.672
1.672
1.652
1.647
1.667
1.662
1.632
1.637
1.662
1.676
1.667
1.662
1.676
1.691
1.667
1.647
1.667
1.681
1.681
1.672
1.686
1.711
1.691
1.662
1.667
1.681
1.676
1.657
1.652
1.676
1.681
1.657
1.657
1.686
1.691
1.681
1.662
1.676
1.686
1.652
1.628
1.632
1.642
1.632
1.628
1.647
1.681
1.676
1.657
1.672
1.691
1.691
1.672
1.667
1.681
1.676
1.647
1.652
1.681
1.696
1.691
1.691
1.711
1.73
1.701
1.676
1.681
1.691
1.672
1.652
1.657
1.681
1.672
1.652
1.672
1.706
1.72
1.711
1.711
1.735
1.74
1.711
1.701
1.711
1.711
1.696
1.686
1.701
1.716
1.691
1.667
1.676
1.691
1.681
1.667
1.672
1.691
1.676
1.652
1.657
1.676
1.676
1.652
1.647
1.662
1.667
1.642
1.642
1.662
1.672
1.662
1.647
1.667
1.681
1.662
1.642
1.662
1.686
1.681
1.657
1.662
1.672
1.657
1.628
1.632
1.657
1.662
1.652
1.652
1.672
1.676
1.657
1.662
1.691
1.711
1.716
1.73
1.784
1.843
1.867
1.906
1.975
2.038
2.072
2.082
2.097
2.107
2.058
1.97
1.901
1.828
1.73
1.632
1.564
1.544
1.52
1.486
1.491
1.535
1.569
1.584
1.603
1.642
1.676
1.657
1.642
1.662
1.672
1.662
1.642
1.647
1.667
1.657
1.628
1.637
1.657
1.657
1.647
1.647
1.667
1.672
1.637
1.628
1.642
1.652
1.637
1.632
1.652
1.676
1.667
1.652
1.676
1.696
1.696
1.681
1.686
1.706
1.696
1.667
1.676
1.696
1.701
1.681
1.676
1.706
1.716
1.691
1.686
1.701
1.706
1.691
1.676
1.681
1.686
1.657
1.637
1.652
1.676
1.681
1.676
1.686
1.72
1.72
1.696
1.706
1.735
1.74
1.725
1.72
1.74
1.74
1.711
1.701
1.72
1.73
1.72
1.716
1.735
1.755
1.735
1.725
1.745
1.764
1.76
1.745
1.75
1.779
1.774
1.755
1.76
1.769
1.764
1.74
1.725
1.74
1.74
1.716
1.716
1.74
1.755
1.75
1.74
1.75
1.764
1.735
1.716
1.73
1.745
1.745
1.735
1.74
1.76
1.74
1.701
1.696
1.711
1.706
1.686
1.686
1.706
1.711
1.681
1.672
1.691
1.696
1.681
1.662
1.672
1.686
1.662
1.637
1.647
1.657
1.647
1.632
1.637
1.657
1.642
1.613
1.618
1.628
1.628
1.613
1.613
1.642
1.662
1.642
1.647
1.676
1.691
1.676
1.662
1.672
1.681
1.657
1.632
1.642
1.662
1.657
1.642
1.647
1.662
1.647
1.613
1.618
1.642
1.647
1.637
1.642
1.667
1.676
1.642
1.632
1.652
1.657
1.637
1.623
1.637
1.652
1.637
1.628
1.647
1.672
1.667
1.652
1.657
1.676
1.662
1.628
1.628
1.647
1.647
1.632
1.632
1.662
1.672
1.647
1.642
1.662
1.672
1.657
1.642
1.657
1.676
1.662
1.642
1.657
1.672
1.662
1.647
1.652
1.676
1.672
1.652
1.657
1.681
1.681
1.662
1.657
1.676
1.691
1.662
1.652
1.672
1.676
1.662
1.647
1.652
1.667
1.642
1.628
1.642
1.667
1.667
1.657
1.662
1.681
1.672
1.637
1.642
1.657
1.662
1.652
1.652
1.672
1.676
1.642
1.632
1.652
1.667
1.667
1.662
1.681
1.696
1.672
1.652
1.667
1.681
1.667
1.647
1.642
1.657
1.652
1.628
1.632
1.657
1.662
1.647
1.652
1.686
1.711
1.686
1.681
1.701
1.711
1.691
1.676
1.681
1.701
1.676
1.662
1.686
1.711
1.72
1.716
1.716
1.735
1.72
1.686
1.686
1.711
1.711
1.696
1.691
1.716
1.72
1.691
1.681
1.696
1.696
1.681
1.657
1.672
1.686
1.667
1.642
1.657
1.672
1.662
1.647
1.647
1.667
1.662
1.632
1.637
1.652
1.652
1.632
1.628
1.647
1.652
1.628
1.623
1.642
1.657
1.652
1.642
1.657
1.672
1.647
1.632
1.652
1.667
1.662
1.647
1.652
1.676
1.667
1.642
1.652
1.686
1.701
1.706
1.72
1.764
1.799
1.799
1.828
1.887
1.945
1.989
2.028
2.077
2.107
2.082
2.033
1.994
1.935
1.843
1.735
1.652
1.608
1.549
1.491
1.486
1.51
1.53
1.54
1.564
1.613
1.647
1.637
1.637
1.657
1.662
1.647
1.628
1.637
1.647
1.628
1.608
1.632
1.652
1.657
1.642
1.652
1.672
1.667
1.642
1.647
1.672
1.672
1.657
1.647
1.672
1.681
1.652
1.642
1.662
1.672
1.662
1.652
1.667
1.686
1.672
1.652
1.662
1.681
1.681
1.667
1.672
1.696
1.691
1.662
1.667
1.691
1.696
1.681
1.676
1.706
1.716
1.686
1.676
1.691
1.696
1.686
1.672
1.691
1.716
1.696
1.672
1.686
1.711
1.711
1.701
1.706
1.73
1.725
1.701
1.706
1.73
1.73
1.72
1.72
1.755
1.769
1.75
1.74
1.764
1.779
1.764
1.745
1.745
1.755
1.73
1.711
1.725
1.745
1.74
1.725
1.735
1.76
1.76
1.735
1.74
1.76
1.76
1.745
1.735
1.745
1.745
1.706
1.691
1.706
1.72
1.716
1.711
1.73
1.755
1.74
1.72
1.73
1.745
1.73
1.706
1.701
1.716
1.706
1.676
1.676
1.701
1.696
1.676
1.662
1.681
1.691
1.667
1.652
1.662
1.667
1.647
1.632
1.647
1.662
1.637
1.613
1.628
1.652
1.652
1.637
1.642
1.662
1.652
1.623
1.623
1.642
1.642
1.628
1.613
1.628
1.632
1.598
1.593
1.618
1.642
1.642
1.642
1.662
1.686
1.667
1.642
1.642
1.652
1.642
1.628
1.632
1.662
1.657
1.632
1.642
1.662
1.662
1.647
1.642
1.662
1.676
1.652
1.642
1.667
1.676
1.672
1.657
1.672
1.691
1.667
1.642
1.642
1.657
1.647
1.628
1.628
1.647
1.647
1.628
1.632
1.657
1.667
1.652
1.642
1.662
1.667
1.637
1.623
1.642
1.657
1.652
1.642
1.657
1.676
1.662
1.642
1.657
1.681
1.676
1.657
1.657
1.681
1.676
1.647
1.647
1.667
1.667
1.652
1.642
1.662
1.676
1.647
1.637
1.662
1.676
1.667
1.657
1.672
1.691
1.672
1.647
1.657
1.676
1.672
1.657
1.662
1.686
1.691
1.662
1.657
1.676
1.681
1.662
1.647
1.657
1.662
1.632
1.623
1.642
1.662
1.657
1.652
1.672
1.696
1.681
1.652
1.657
1.672
1.662
1.642
1.642
1.667
1.662
1.637
1.642
1.676
1.686
1.681
1.672
1.691
1.701
1.672
1.652
1.667
1.676
1.667
1.657
1.676
1.706
1.701
1.686
1.711
1.735
1.735
1.716
1.716
1.74
1.73
1.696
1.691
1.706
1.711
1.696
1.696
1.72
1.735
1.711
1.701
1.72
1.725
1.701
1.672
1.672
1.681
1.657
1.632
1.647
1.667
1.667
1.652
1.652
1.676
1.667
1.632
1.628
1.652
1.657
1.647
1.647
1.672
1.686
1.662
1.642
1.657
1.667
1.647
1.628
1.632
1.662
1.657
1.642
1.662
1.681
1.681
1.667
1.667
1.686
1.681
1.657
1.662
1.701
1.725
1.74
1.755
1.799
1.838
1.852
1.882
1.955
2.019
2.058
2.072
2.097
2.111
2.067
1.994
1.94
1.877
1.784
1.686
1.613
1.584
1.544
1.496
1.491
1.525
1.554
1.574
1.603
1.657
1.691
1.676
1.667
1.676
1.681
1.657
1.637
1.642
1.662
1.642
1.623
1.637
1.662
1.662
1.647
1.647
1.667
1.662
1.637
1.642
1.667
1.672
1.662
1.652
1.672
1.686
1.662
1.652
1.667
1.681
1.667
1.652
1.662
1.686
1.676
1.662
1.681
1.711
1.711
1.701
1.696
1.711
1.696
1.652
1.647
1.662
1.667
1.657
1.657
1.696
1.72
1.706
1.696
1.716
1.725
1.711
1.696
1.701
1.725
1.711
1.691
1.701
1.72
1.72
1.706
1.711
1.735
1.74
1.711
1.706
1.725
1.73
1.72
1.716
1.735
1.75
1.73
1.72
1.745
1.764
1.76
1.75
1.76
1.779
1.76
1.735
1.74
1.76
1.76
1.74
1.745
1.769
1.769
1.74
1.735
1.76
1.769
1.764
1.764
1.784
1.799
1.774
1.76
1.774
1.784
1.764
1.735
1.73
1.74
1.72
1.696
1.706
1.72
1.716
1.696
1.691
1.716
1.711
1.681
1.676
1.691
1.691
1.672
1.657
1.676
1.686
1.662
1.647
1.662
1.672
1.662
1.637
1.642
1.657
1.637
1.608
1.618
1.642
1.647
1.637
1.637
1.662
1.667
1.642
1.647
1.667
1.672
1.657
1.647
1.662
1.672
1.642
1.623
1.637
1.652
1.642
1.628
1.637
1.662
1.652
1.632
1.642
1.667
1.662
1.642
1.637
1.657
1.647
1.613
1.608
1.628
1.642
1.637
1.642
1.672
1.696
1.672
1.657
1.667
1.672
1.657
1.632
1.628
1.642
1.623
1.603
1.623
1.657
1.662
1.662
1.672
1.701
1.696
1.657
1.647
1.657
1.652
1.632
1.623
1.642
1.667
1.652
1.647
1.667
1.681
1.676
1.662
1.672
1.691
1.667
1.637
1.642
1.662
1.662
1.652
1.647
1.672
1.676
1.647
1.652
1.681
1.696
1.676
1.667
1.681
1.691
1.667
1.652
1.657
1.667
1.647
1.628
1.628
1.652
1.637
1.618
1.637
1.667
1.672
1.662
1.667
1.691
1.686
1.652
1.642
1.662
1.667
1.652
1.642
1.662
1.681
1.657
1.647
1.672
1.691
1.681
1.667
1.681
1.701
1.686
1.662
1.672
1.696
1.696
1.686
1.691
1.716
1.72
1.696
1.696
1.716
1.716
1.696
1.676
1.686
1.696
1.672
1.657
1.686
1.706
1.706
1.696
1.711
1.73
1.706
1.667
1.662
1.667
1.657
1.642
1.637
1.662
1.667
1.642
1.642
1.667
1.672
1.657
1.637
1.652
1.667
1.642
1.623
1.642
1.662
1.657
1.647
1.657
1.681
1.667
1.637
1.642
1.657
1.647
1.628
1.623
1.642
1.642
1.618
1.618
1.647
1.662
1.662
1.672
1.706
1.74
1.735
1.735
1.769
1.804
1.823
1.833
1.867
1.916
1.94
1.95
1.989
2.033
2.033
2.004
1.97
1.94
1.872
1.76
1.667
1.613
1.564
1.515
1.486
1.496
1.525
1.52
1.535
1.584
1.623
1.637
1.637
1.652
1.676
1.672
1.642
1.647
1.662
1.657
1.632
1.632
1.652
1.662
1.642
1.637
1.657
1.667
1.662
1.652
1.667
1.681
1.657
1.637
1.662
1.686
1.686
1.681
1.686
1.711
1.691
1.662
1.662
1.676
1.676
1.662
1.662
1.691
1.701
1.676
1.672
1.696
1.706
1.696
1.686
1.701
1.725
1.706
1.686
1.696
1.701
1.686
1.672
1.681
1.706
1.701
1.691
1.711
1.74
1.745
1.73
1.725
1.745
1.745
1.711
1.711
1.735
1.75
1.745
1.735
1.75
1.764
1.74
1.72
1.74
1.755
1.75
1.74
1.76
1.784
1.774
1.745
1.75
1.764
1.76
1.74
1.74
1.764
1.769
1.745
1.74
1.769
1.779
1.769
1.76
1.779
1.804
1.784
1.769
1.794
1.813
1.799
1.774
1.764
1.774
1.755
1.716
1.716
1.735
1.735
1.725
1.72
1.74
1.74
1.711
1.696
1.706
1.706
1.686
1.672
1.681
1.686
1.652
1.632
1.652
1.676
1.667
1.647
1.652
1.672
1.667
1.642
1.647
1.662
1.657
1.642
1.637
1.657
1.662
1.637
1.628
1.642
1.652
1.637
1.628
1.642
1.657
1.628
1.608
1.623
1.642
1.642
1.637
1.652
1.676
1.667
1.637
1.642
1.657
1.652
1.632
1.628
1.647
1.657
1.628
1.628
1.642
1.652
1.637
1.632
1.642
1.657
1.632
1.613
1.632
1.647
1.642
1.632
1.647
1.672
1.667
1.647
1.652
1.672
1.672
1.652
1.642
1.657
1.657
1.628
1.618
1.637
1.647
1.632
1.628
1.647
1.672
1.657
1.642
1.662
1.681
1.676
1.662
1.662
1.681
1.672
1.637
1.642
1.662
1.662
1.652
1.657
1.681
1.686
1.652
1.647
1.667
1.676
1.667
1.657
1.672
1.691
1.662
1.647
1.667
1.676
1.667
1.647
1.652
1.676
1.667
1.642
1.652
1.676
1.676
1.662
1.652
1.667
1.667
1.632
1.623
1.642
1.657
1.647
1.642
1.662
1.681
1.662
1.637
1.647
1.667
1.662
1.652
1.667
1.696
1.696
1.672
1.676
1.696
1.691
1.672
1.667
1.681
1.686
1.657
1.652
1.676
1.686
1.676
1.672
1.691
1.711
1.691
1.676
1.701
1.72
1.72
1.701
1.706
1.73
1.725
1.696
1.701
1.716
1.72
1.706
1.696
1.701
1.696
1.652
1.637
1.652
1.652
1.637
1.628
1.642
1.672
1.657
1.642
1.662
1.681
1.672
1.652
1.657
1.676
1.662
1.632
1.632
1.652
1.647
1.628
1.623
1.647
1.652
1.623
1.613
1.628
1.637
1.628
1.623
1.637
1.652
1.632
1.618
1.637
1.667
1.672
1.667
1.691
1.735
1.75
1.75
1.784
1.838
1.872
1.896
1.935
2.009
2.058
2.063
2.067
2.072
2.043
1.979
1.891
1.813
1.735
1.632
1.544
1.515
1.515
1.51
1.51
1.54
1.584
1.603
1.593
1.613
1.647
1.652
1.632
1.623
1.642
1.647
1.623
1.613
1.632
1.642
1.632
1.623
1.642
1.657
1.637
1.618
1.637
1.652
1.647
1.632
1.637
1.662
1.657
1.632
1.642
1.672
1.676
1.667
1.662
1.681
1.681
1.652
1.642
1.662
1.672
1.667
1.657
1.681
1.706
1.686
1.667
1.681
1.691
1.681
1.667
1.672
1.696
1.691
1.667
1.676
1.706
1.716
1.701
1.696
1.716
1.716
1.686
1.676
1.696
1.706
1.696
1.686
1.706
1.725
1.706
1.686
1.701
1.72
1.725
1.711
1.716
1.74
1.74
1.716
1.725
1.755
1.76
1.74
1.73
1.745
1.75
1.716
1.706
1.72
1.735
1.73
1.725
1.745
1.764
1.75
1.73
1.745
1.764
1.76
1.745
1.75
1.769
1.764
1.735
1.735
1.755
1.755
1.735
1.73
1.75
1.755
1.73
1.72
1.74
1.745
1.725
1.706
1.706
1.716
1.686
1.662
1.676
1.696
1.691
1.676
1.681
1.706
1.701
1.662
1.657
1.667
1.667
1.652
1.642
1.662
1.667
1.632
1.618
1.628
1.642
1.628
1.618
1.632
1.657
1.637
1.618
1.628
1.637
1.623
1.608
1.618
1.642
1.652
1.628
1.642
1.667
1.672
1.652
1.647
1.662
1.672
1.637
1.628
1.637
1.647
1.632
1.628
1.652
1.681
1.672
1.662
1.686
1.706
1.701
1.681
1.676
1.681
1.652
1.608
1.603
1.623
1.628
1.618
1.618
1.652
1.672
1.652
1.647
1.672
1.676
1.662
1.637
1.642
1.657
1.632
1.613
1.628
1.652
1.652
1.642
1.647
1.676
1.672
1.642
1.647
1.667
1.676
1.667
1.657
1.672
1.681
1.652
1.637
1.652
1.657
1.647
1.637
1.652
1.681
1.667
1.652
1.667
1.691
1.686
1.667
1.662
1.681
1.676
1.647
1.657
1.681
1.691
1.681
1.676
1.691
1.696
1.657
1.642
1.657
1.667
1.652
1.642
1.652
1.681
1.662
1.642
1.652
1.667
1.662
1.647
1.657
1.681
1.681
1.657
1.657
1.681
1.681
1.667
1.657
1.676
1.686
1.657
1.647
1.667
1.676
1.662
1.642
1.657
1.681
1.667
1.647
1.662
1.686
1.686
1.676
1.691
1.716
1.706
1.676
1.676
1.701
1.706
1.696
1.691
1.716
1.73
1.706
1.701
1.72
1.735
1.725
1.711
1.716
1.735
1.716
1.691
1.701
1.716
1.706
1.686
1.681
1.696
1.686
1.647
1.642
1.657
1.657
1.642
1.637
1.667
1.681
1.657
1.647
1.662
1.672
1.657
1.647
1.657
1.672
1.647
1.618
1.637
1.662
1.667
1.652
1.652
1.672
1.667
1.642
1.637
1.662
1.662
1.642
1.632
1.647
1.652
1.628
1.623
1.652
1.681
1.696
1.711
1.75
1.799
1.808
1.818
1.867
1.926
1.965
1.994
2.033
2.087
2.097
2.063
2.033
2.009
1.95
1.857
1.764
1.701
1.642
1.564
1.52
1.52
1.525
1.525
1.53
1.569
1.623
1.632
1.637
1.672
1.701
1.696
1.672
1.657
1.667
1.652
1.613
1.608
1.637
1.647
1.637
1.642
1.667
1.686
1.657
1.642
1.662
1.676
1.672
1.657
1.672
1.686
1.667
1.642
1.652
1.667
1.662
1.647
1.647
1.676
1.676
1.647
1.652
1.676
1.681
1.662
1.657
1.676
1.696
1.672
1.662
1.686
1.706
1.701
1.696
1.711
1.735
1.711
1.681
1.681
1.691
1.686
1.672
1.672
1.706
1.711
1.686
1.696
1.72
1.73
1.716
1.706
1.72
1.735
1.711
1.711
1.735
1.75
1.74
1.725
1.74
1.76
1.74
1.72
1.73
1.75
1.745
1.735
1.745
1.769
1.769
1.74
1.74
1.76
1.764
1.75
1.74
1.764
1.779
1.755
1.745
1.764
1.779
1.764
1.75
1.755
1.769
1.75
1.72
1.73
1.75
1.745
1.73
1.73
1.75
1.745
1.711
1.711
1.735
1.74
1.73
1.72
1.735
1.74
1.711
1.691
1.701
1.711
1.691
1.672
1.676
1.696
1.681
1.662
1.676
1.696
1.686
1.657
1.647
1.662
1.652
1.618
1.618
1.642
1.652
1.647
1.647
1.672
1.686
1.657
1.632
1.637
1.642
1.623
1.608
1.618
1.647
1.637
1.623
1.637
1.657
1.662
1.647
1.652
1.676
1.676
1.657
1.662
1.686
1.691
1.672
1.657
1.662
1.662
1.623
1.608
1.628
1.647
1.652
1.652
1.672
1.696
1.681
1.652
1.652
1.662
1.662
1.647
1.642
1.672
1.672
1.642
1.632
1.652
1.652
1.637
1.628
1.642
1.657
1.637
1.628
1.647
1.662
1.657
1.642
1.652
1.672
1.657
1.637
1.647
1.672
1.672
1.652
1.647
1.662
1.662
1.628
1.623
1.642
1.647
1.637
1.637
1.662
1.686
1.667
1.667
1.691
1.711
1.706
1.686
1.691
1.706
1.686
1.657
1.662
1.676
1.676
1.662
1.672
1.696
1.701
1.667
1.657
1.676
1.676
1.657
1.642
1.657
1.672
1.642
1.628
1.647
1.662
1.657
1.642
1.647
1.667
1.657
1.632
1.647
1.672
1.672
1.657
1.657
1.676
1.676
1.642
1.637
1.662
1.672
1.662
1.652
1.672
1.686
1.662
1.652
1.672
1.686
1.676
1.662
1.672
1.701
1.696
1.676
1.686
1.706
1.706
1.686
1.676
1.701
1.701
1.676
1.681
1.711
1.72
1.72
1.72
1.735
1.745
1.716
1.696
1.711
1.725
1.716
1.701
1.701
1.72
1.706
1.672
1.676
1.691
1.686
1.667
1.667
1.691
1.691
1.652
1.642
1.662
1.662
1.647
1.637
1.657
1.676
1.662
1.647
1.672
1.686
1.676
1.657
1.657
1.672
1.657
1.632
1.642
1.667
1.667
1.657
1.662
1.686
1.691
1.662
1.657
1.676
1.681
1.662
1.652
1.672
1.686
1.657
1.637
1.647
1.662
1.662
1.657
1.676
1.72
1.73
1.73
1.764
1.813
1.843
1.862
1.906
1.979
2.023
2.043
2.067
2.102
2.097
2.043
1.97
1.906
1.823
1.701
1.608
1.564
1.544
1.515
1.496
1.51
1.549
1.559
1.559
1.593
1.637
1.657
1.647
1.652
1.676
1.672
1.632
1.623
1.637
1.647
1.642
1.647
1.676
1.696
1.676
1.662
1.672
1.681
1.662
1.637
1.637
1.657
1.647
1.628
1.642
1.672
1.676
1.672
1.672
1.691
1.691
1.662
1.652
1.672
1.676
1.662
1.657
1.676
1.696
1.667
1.652
1.667
1.681
1.676
1.662
1.672
1.696
1.686
1.662
1.667
1.691
1.691
1.681
1.686
1.716
1.725
1.701
1.701
1.725
1.735
1.72
1.706
1.716
1.725
1.696
1.676
1.696
1.716
1.711
1.701
1.716
1.74
1.74
1.725
1.735
1.76
1.755
1.74
1.73
1.745
1.75
1.716
1.711
1.735
1.75
1.74
1.73
1.75
1.769
1.75
1.735
1.75
1.764
1.76
1.745
1.75
1.769
1.755
1.725
1.735
1.755
1.764
1.745
1.74
1.76
1.755
1.72
1.711
1.73
1.74
1.73
1.72
1.735
1.755
1.73
1.711
1.725
1.73
1.711
1.681
1.681
1.696
1.681
1.642
1.642
1.652
1.652
1.637
1.632
1.652
1.652
1.628
1.628
1.652
1.667
1.652
1.642
1.652
1.667
1.632
1.608
1.618
1.637
1.637
1.623
1.637
1.662
1.657
1.628
1.628
1.647
1.647
1.628
1.618
1.637
1.642
1.613
1.608
1.632
1.647
1.642
1.642
1.667
1.686
1.667
1.652
1.662
1.667
1.647
1.623
1.628
1.647
1.642
1.628
1.637
1.662
1.662
1.647
1.642
1.652
1.652
1.618
1.613
1.637
1.657
1.652
1.647
1.662
1.681
1.652
1.632
1.642
1.657
1.652
1.632
1.642
1.667
1.662
1.637
1.637
1.652
1.647
1.632
1.632
1.657
1.667
1.642
1.642
1.662
1.676
1.662
1.647
1.662
1.676
1.652
1.637
1.652
1.667
1.657
1.647
1.657
1.681
1.672
1.652
1.657
1.676
1.676
1.657
1.652
1.667
1.667
1.642
1.632
1.662
1.672
1.667
1.657
1.672
1.686
1.662
1.642
1.652
1.672
1.662
1.647
1.652
1.676
1.667
1.637
1.642
1.667
1.667
1.652
1.647
1.672
1.676
1.642
1.632
1.652
1.672
1.667
1.657
1.672
1.691
1.672
1.652
1.667
1.686
1.681
1.667
1.672
1.696
1.696
1.672
1.681
1.706
1.711
1.691
1.691
1.711
1.72
1.696
1.686
1.706
1.711
1.696
1.686
1.691
1.706
1.686
1.667
1.686
1.706
1.696
1.681
1.686
1.711
1.696
1.662
1.662
1.672
1.667
1.642
1.632
1.652
1.657
1.628
1.623
1.642
1.657
1.647
1.637
1.652
1.672
1.652
1.637
1.657
1.672
1.662
1.642
1.642
1.662
1.652
1.618
1.623
1.642
1.642
1.632
1.632
1.657
1.676
1.657
1.667
1.701
1.73
1.73
1.74
1.769
1.804
1.799
1.799
1.838
1.887
1.921
1.945
1.979
2.019
2.014
1.979
1.96
1.94
1.877
1.789
1.711
1.667
1.613
1.54
1.5
1.5
1.5
1.5
1.51
1.549
1.598
1.608
1.613
1.642
1.667
1.662
1.647
1.652
1.672
1.657
1.623
1.628
1.647
1.657
1.647
1.647
1.667
1.676
1.642
1.637
1.657
1.667
1.657
1.652
1.676
1.696
1.672
1.652
1.667
1.686
1.681
1.672
1.676
1.701
1.696
1.667
1.672
1.696
1.701
1.686
1.681
1.696
1.696
1.667
1.657
1.676
1.686
1.681
1.676
1.696
1.72
1.701
1.686
1.706
1.72
1.711
1.686
1.686
1.711
1.706
1.686
1.696
1.725
1.73
1.72
1.725
1.755
1.764
1.735
1.72
1.735
1.74
1.72
1.701
1.72
1.735
1.72
1.706
1.725
1.755
1.755
1.74
1.745
1.774
1.769
1.745
1.75
1.769
1.779
1.769
1.769
1.794
1.799
1.764
1.755
1.774
1.784
1.774
1.755
1.764
1.784
1.76
1.74
1.755
1.774
1.76
1.735
1.735
1.75
1.74
1.701
1.706
1.725
1.725
1.706
1.696
1.711
1.716
1.681
1.667
1.681
1.686
1.672
1.657
1.672
1.686
1.667
1.647
1.662
1.676
1.667
1.652
1.657
1.676
1.672
1.637
1.642
1.662
1.672
1.657
1.642
1.662
1.672
1.642
1.628
1.642
1.662
1.652
1.647
1.662
1.686
1.667
1.642
1.647
1.657
1.637
1.613
1.613
1.632
1.632
1.613
1.618
1.647
1.662
1.652
1.647
1.667
1.676
1.642
1.628
1.642
1.652
1.637
1.628
1.647
1.681
1.667
1.652
1.672
1.691
1.681
1.662
1.662
1.681
1.667
1.637
1.637
1.657
1.657
1.642
1.632
1.657
1.667
1.642
1.637
1.662
1.676
1.672
1.662
1.676
1.696
1.676
1.652
1.667
1.681
1.672
1.652
1.647
1.662
1.652
1.628
1.632
1.662
1.676
1.676
1.672
1.696
1.701
1.667
1.652
1.662
1.667
1.647
1.632
1.652
1.676
1.667
1.652
1.667
1.691
1.681
1.667
1.672
1.691
1.681
1.652
1.657
1.681
1.686
1.676
1.672
1.691
1.701
1.676
1.662
1.676
1.681
1.662
1.647
1.652
1.667
1.647
1.632
1.647
1.667
1.672
1.662
1.667
1.686
1.676
1.642
1.642
1.662
1.662
1.647
1.647
1.672
1.686
1.662
1.657
1.672
1.676
1.657
1.642
1.662
1.691
1.676
1.662
1.681
1.706
1.706
1.686
1.686
1.706
1.696
1.672
1.676
1.706
1.716
1.711
1.706
1.725
1.735
1.706
1.696
1.716
1.72
1.711
1.696
1.711
1.73
1.706
1.681
1.691
1.706
1.696
1.672
1.672
1.686
1.676
1.642
1.637
1.662
1.672
1.667
1.662
1.681
1.686
1.657
1.642
1.662
1.672
1.657
1.642
1.652
1.676
1.657
1.632
1.637
1.647
1.637
1.623
1.628
1.657
1.662
1.637
1.642
1.667
1.672
1.652
1.647
1.662
1.672
1.657
1.667
1.711
1.745
1.76
1.769
1.804
1.857
1.877
1.901
1.955
2.014
2.053
2.067
2.077
2.082
2.043
1.96
1.887
1.823
1.74
1.642
1.564
1.535
1.515
1.481
1.471
1.515
1.559
1.588
1.608
1.647
1.681
1.667
1.637
1.637
1.642
1.628
1.608
1.618
1.647
1.657
1.637
1.652
1.681
1.691
1.681
1.672
1.686
1.691
1.652
1.637
1.652
1.662
1.652
1.642
1.657
1.681
1.667
1.652
1.667
1.691
1.691
1.672
1.672
1.691
1.686
1.657
1.657
1.681
1.681
1.672
1.667
1.686
1.691
1.662
1.647
1.667
1.681
1.667
1.657
1.672
1.701
1.696
1.681
1.706
1.73
1.725
1.706
1.706
1.72
1.711
1.676
1.676
1.696
1.701
1.691
1.696
1.725
1.745
1.716
1.701
1.72
1.73
1.725
1.716
1.735
1.764
1.755
1.74
1.755
1.779
1.779
1.76
1.755
1.774
1.764
1.73
1.725
1.75
1.755
1.74
1.73
1.75
1.764
1.74
1.73
1.75
1.764
1.755
1.74
1.745
1.76
1.74
1.711
1.72
1.74
1.735
1.72
1.725
1.75
1.75
1.72
1.716
1.725
1.72
1.691
1.676
1.686
1.701
1.676
1.662
1.681
1.691
1.681
1.662
1.667
1.681
1.657
1.632
1.642
1.667
1.672
1.657
1.662
1.681
1.676
1.642
1.632
1.647
1.652
1.637
1.632
1.652
1.662
1.632
1.623
1.642
1.657
1.647
1.628
1.642
1.667
1.652
1.632
1.642
1.657
1.647
1.628
1.632
1.657
1.647
1.618
1.618
1.642
1.652
1.642
1.637
1.652
1.662
1.632
1.618
1.632
1.647
1.637
1.628
1.642
1.667
1.652
1.628
1.637
1.662
1.662
1.647
1.642
1.667
1.667
1.642
1.637
1.657
1.662
1.647
1.637
1.657
1.667
1.642
1.632
1.652
1.667
1.657
1.647
1.662
1.681
1.662
1.637
1.647
1.662
1.652
1.637
1.637
1.667
1.667
1.642
1.647
1.676
1.681
1.662
1.647
1.657
1.662
1.632
1.623
1.647
1.667
1.667
1.657
1.676
1.701
1.686
1.657
1.662
1.672
1.662
1.637
1.632
1.652
1.657
1.632
1.637
1.662
1.667
1.657
1.647
1.662
1.672
1.647
1.637
1.657
1.676
1.672
1.667
1.676
1.696
1.672
1.642
1.647
1.667
1.662
1.647
1.647
1.672
1.672
1.642
1.642
1.662
1.672
1.657
1.657
1.681
1.696
1.672
1.662
1.676
1.686
1.676
1.657
1.667
1.686
1.676
1.652
1.657
1.676
1.681
1.662
1.667
1.686
1.691
1.667
1.676
1.701
1.711
1.701
1.696
1.72
1.735
1.711
1.696
1.711
1.73
1.716
1.696
1.701
1.716
1.696
1.667
1.672
1.691
1.696
1.686
1.691
1.716
1.711
1.672
1.662
1.676
1.676
1.657
1.647
1.662
1.672
1.647
1.632
1.652
1.667
1.657
1.637
1.642
1.667
1.652
1.632
1.642
1.667
1.667
1.647
1.642
1.662
1.662
1.637
1.628
1.647
1.647
1.628
1.618
1.637
1.652
1.632
1.632
1.662
1.696
1.711
1.716
1.755
1.799
1.813
1.823
1.867
1.931
1.979
2.019
2.058
2.102
2.107
2.067
2.028
1.994
1.926
1.823
1.72
1.652
1.603
1.53
1.486
1.491
1.51
1.52
1.535
1.579
1.628
1.642
1.637
1.657
1.681
1.676
1.657
1.652
1.672
1.672
1.637
1.632
1.652
1.657
1.642
1.628
1.642
1.647
1.618
1.603
1.628
1.657
1.662
1.657
1.667
1.691
1.676
1.652
1.667
1.686
1.681
1.662
1.662
1.681
1.681
1.647
1.647
1.672
1.676
1.672
1.667
1.691
1.716
1.701
1.686
1.706
1.716
1.701
1.681
1.691
1.716
1.701
1.676
1.691
1.706
1.701
1.681
1.667
1.686
1.686
1.667
1.672
1.706
1.73
1.73
1.73
1.75
1.76
1.725
1.701
1.711
1.725
1.716
1.701
1.711
1.735
1.73
1.711
1.725
1.745
1.745
1.73
1.73
1.755
1.76
1.73
1.725
1.74
1.745
1.73
1.72
1.745
1.769
1.75
1.745
1.769
1.789
1.784
1.769
1.779
1.794
1.774
1.745
1.75
1.769
1.764
1.745
1.735
1.755
1.755
1.725
1.72
1.735
1.73
1.716
1.706
1.72
1.725
1.691
1.672
1.681
1.686
1.667
1.647
1.652
1.676
1.662
1.642
1.647
1.672
1.667
1.642
1.632
1.647
1.647
1.613
1.613
1.642
1.657
1.652
1.647
1.667
1.681
1.652
1.623
1.632
1.642
1.637
1.632
1.647
1.672
1.657
1.637
1.647
1.672
1.667
1.647
1.642
1.662
1.662
1.632
1.628
1.647
1.652
1.637
1.628
1.642
1.662
1.642
1.628
1.647
1.662
1.657
1.642
1.642
1.667
1.652
1.628
1.637
1.657
1.662
1.642
1.637
1.657
1.657
1.632
1.628
1.647
1.657
1.647
1.642
1.652
1.662
1.637
1.628
1.647
1.672
1.662
1.652
1.662
1.691
1.676
1.642
1.642
1.657
1.652
1.637
1.637
1.657
1.667
1.647
1.647
1.672
1.681
1.667
1.657
1.672
1.681
1.657
1.637
1.652
1.672
1.667
1.657
1.667
1.691
1.676
1.647
1.652
1.672
1.672
1.652
1.652
1.672
1.672
1.647
1.647
1.676
1.686
1.676
1.667
1.686
1.701
1.676
1.652
1.657
1.657
1.647
1.628
1.642
1.672
1.662
1.642
1.652
1.672
1.667
1.647
1.632
1.652
1.652
1.623
1.623
1.652
1.672
1.667
1.662
1.681
1.696
1.672
1.657
1.672
1.686
1.681
1.672
1.681
1.701
1.691
1.662
1.662
1.681
1.681
1.662
1.657
1.686
1.691
1.667
1.667
1.691
1.706
1.686
1.672
1.681
1.696
1.672
1.667
1.686
1.711
1.701
1.686
1.691
1.716
1.701
1.681
1.691
1.72
1.725
1.716
1.716
1.74
1.74
1.706
1.691
1.716
1.725
1.716
1.696
1.706
1.716
1.681
1.647
1.647
1.642
1.628
1.613
1.628
1.662
1.667
1.647
1.667
1.691
1.691
1.676
1.672
1.686
1.681
1.642
1.632
1.647
1.657
1.642
1.632
1.647
1.667
1.647
1.632
1.652
1.667
1.662
1.642
1.642
1.667
1.657
1.628
1.637
1.672
1.691
1.696
1.716
1.764
1.799
1.799
1.828
1.887
1.935
1.97
2.009
2.067
2.116
2.102
2.072
2.053
2.014
1.935
1.828
1.74
1.676
1.593
1.52
1.496
1.51
1.515
1.515
1.54
1.584
1.618
1.608
1.623
1.657
1.667
1.657
1.647
1.662
1.672
1.642
1.618
1.632
1.647
1.642
1.628
1.632
1.657
1.652
1.628
1.637
1.662
1.662
1.647
1.647
1.672
1.681
1.657
1.657
1.686
1.706
1.686
1.672
1.676
1.686
1.662
1.642
1.667
1.691
1.696
1.691
1.701
1.72
1.706
1.672
1.667
1.681
1.676
1.662
1.662
1.691
1.706
1.686
1.681
1.701
1.706
1.691
1.676
1.691
1.706
1.681
1.667
1.681
1.706
1.706
1.701
1.711
1.735
1.73
1.701
1.706
1.725
1.725
1.711
1.711
1.74
1.755
1.735
1.735
1.76
1.769
1.755
1.735
1.745
1.76
1.74
1.725
1.745
1.769
1.769
1.76
1.76
1.774
1.76
1.725
1.72
1.74
1.745
1.73
1.73
1.755
1.764
1.735
1.725
1.745
1.755
1.74
1.725
1.735
1.755
1.73
1.701
1.706
1.716
1.706
1.691
1.701
1.725
1.716
1.691
1.696
1.72
1.716
1.691
1.676
1.681
1.681
1.642
1.632
1.652
1.662
1.652
1.642
1.657
1.672
1.647
1.628
1.642
1.652
1.642
1.628
1.632
1.662
1.662
1.637
1.642
1.662
1.662
1.637
1.623
1.637
1.642
1.613
1.603
1.623
1.637
1.628
1.623
1.637
1.657
1.632
1.618
1.632
1.652
1.647
1.637
1.642
1.662
1.657
1.632
1.642
1.662
1.662
1.642
1.632
1.652
1.647
1.608
1.588
1.603
1.618
1.618
1.623
1.657
1.686
1.676
1.657
1.672
1.686
1.667
1.642
1.637
1.657
1.652
1.632
1.637
1.662
1.662
1.647
1.637
1.662
1.667
1.637
1.628
1.647
1.657
1.647
1.637
1.652
1.672
1.647
1.632
1.642
1.667
1.662
1.642
1.642
1.657
1.647
1.613
1.628
1.657
1.667
1.652
1.647
1.667
1.676
1.647
1.637
1.652
1.657
1.642
1.632
1.652
1.676
1.662
1.642
1.657
1.676
1.676
1.662
1.662
1.681
1.672
1.637
1.637
1.662
1.667
1.652
1.652
1.676
1.681
1.652
1.642
1.657
1.662
1.647
1.632
1.647
1.672
1.652
1.637
1.652
1.672
1.667
1.652
1.652
1.676
1.672
1.652
1.667
1.701
1.706
1.696
1.691
1.716
1.72
1.691
1.672
1.686
1.691
1.681
1.672
1.696
1.725
1.716
1.701
1.711
1.72
1.706
1.676
1.667
1.676
1.657
1.628
1.632
1.657
1.657
1.642
1.642
1.662
1.672
1.647
1.642
1.662
1.672
1.662
1.642
1.642
1.652
1.623
1.598
1.613
1.632
1.637
1.632
1.647
1.676
1.676
1.647
1.637
1.647
1.642
1.623
1.618
1.642
1.652
1.637
1.647
1.691
1.72
1.73
1.74
1.769
1.808
1.804
1.808
1.852
1.906
1.935
1.955
1.984
2.019
2.009
1.96
1.926
1.891
1.823
1.73
1.647
1.603
1.559
1.496
1.466
1.481
1.5
1.52
1.54
1.584
1.628
1.628
1.628
1.652
1.672
1.662
1.642
1.642
1.672
1.676
1.652
1.657
1.672
1.672
1.657
1.652
1.672
1.676
1.647
1.642
1.672
1.681
1.672
1.657
1.667
1.686
1.667
1.642
1.652
1.672
1.667
1.662
1.672
1.696
1.686
1.657
1.657
1.676
1.676
1.662
1.662
1.676
1.686
1.662
1.662
1.686
1.701
1.691
1.681
1.691
1.716
1.696
1.676
1.691
1.716
1.72
1.711
1.72
1.74
1.73
1.701
1.701
1.72
1.716
1.706
1.701
1.72
1.73
1.701
1.696
1.716
1.735
1.73
1.72
1.74
1.769
1.755
1.74
1.755
1.769
1.76
1.74
1.74
1.76
1.75
1.72
1.725
1.75
1.76
1.755
1.75
1.774
1.789
1.76
1.75
1.774
1.784
1.769
1.76
1.774
1.789
1.769
1.745
1.755
1.764
1.75
1.725
1.725
1.745
1.745
1.72
1.73
1.75
1.745
1.72
1.706
1.716
1.716
1.676
1.662
1.681
1.691
1.681
1.667
1.672
1.686
1.667
1.642
1.652
1.667
1.657
1.642
1.642
1.662
1.657
1.628
1.628
1.647
1.647
1.632
1.623
1.637
1.647
1.618
1.608
1.637
1.657
1.657
1.647
1.662
1.681
1.662
1.637
1.642
1.652
1.647
1.628
1.637
1.667
1.662
1.632
1.632
1.652
1.657
1.637
1.628
1.647
1.657
1.628
1.618
1.637
1.652
1.642
1.637
1.652
1.676
1.662
1.642
1.662
1.681
1.676
1.662
1.657
1.676
1.662
1.632
1.632
1.652
1.652
1.637
1.628
1.652
1.672
1.657
1.652
1.672
1.686
1.676
1.662
1.667
1.676
1.652
1.632
1.647
1.672
1.676
1.672
1.681
1.701
1.696
1.657
1.652
1.672
1.672
1.662
1.662
1.686
1.701
1.667
1.652
1.667
1.676
1.662
1.652
1.662
1.681
1.662
1.642
1.657
1.676
1.676
1.662
1.667
1.691
1.691
1.667
1.667
1.686
1.681
1.657
1.642
1.652
1.662
1.642
1.637
1.667
1.681
1.676
1.667
1.676
1.696
1.672
1.642
1.652
1.662
1.667
1.657
1.667
1.701
1.701
1.672
1.672
1.691
1.691
1.667
1.652
1.667
1.686
1.667
1.672
1.711
1.73
1.725
1.72
1.73
1.75
1.725
1.696
1.701
1.716
1.711
1.696
1.696
1.72
1.716
1.686
1.686
1.706
1.706
1.686
1.676
1.691
1.696
1.662
1.642
1.647
1.657
1.642
1.628
1.642
1.667
1.652
1.628
1.642
1.662
1.662
1.647
1.652
1.672
1.667
1.637
1.637
1.667
1.672
1.657
1.652
1.672
1.681
1.647
1.632
1.647
1.652
1.637
1.623
1.632
1.662
1.657
1.657
1.696
1.74
1.764
1.769
1.789
1.833
1.857
1.857
1.891
1.95
1.999
2.019
2.038
2.067
2.072
2.014
1.945
1.891
1.818
1.72
1.628
1.579
1.559
1.52
1.486
1.5
1.535
1.549
1.559
1.579
1.618
1.632
1.618
1.628
1.657
1.667
1.652
1.647
1.662
1.672
1.642
1.628
1.642
1.657
1.647
1.637
1.657
1.681
1.676
1.657
1.672
1.696
1.696
1.681
1.676
1.691
1.676
1.642
1.637
1.657
1.662
1.652
1.647
1.662
1.681
1.662
1.652
1.676
1.691
1.686
1.676
1.691
1.711
1.691
1.667
1.681
1.701
1.701
1.691
1.691
1.716
1.716
1.686
1.681
1.701
1.696
1.672
1.662
1.681
1.706
1.691
1.681
1.706
1.72
1.72
1.711
1.725
1.745
1.735
1.711
1.725
1.755
1.755
1.735
1.735
1.755
1.75
1.716
1.716
1.735
1.745
1.735
1.73
1.755
1.774
1.75
1.74
1.764
1.774
1.769
1.75
1.76
1.784
1.764
1.74
1.75
1.764
1.755
1.74
1.74
1.764
1.764
1.73
1.725
1.74
1.74
1.725
1.72
1.735
1.745
1.716
1.706
1.73
1.745
1.735
1.711
1.706
1.716
1.686
1.657
1.662
1.681
1.681
1.662
1.662
1.686
1.686
1.652
1.647
1.662
1.672
1.662
1.652
1.672
1.681
1.657
1.642
1.657
1.667
1.647
1.632
1.642
1.662
1.647
1.628
1.632
1.652
1.652
1.637
1.637
1.662
1.662
1.637
1.632
1.647
1.652
1.642
1.637
1.657
1.672
1.652
1.642
1.657
1.667
1.647
1.632
1.642
1.667
1.652
1.637
1.652
1.676
1.676
1.657
1.652
1.672
1.662
1.623
1.618
1.642
1.657
1.647
1.647
1.667
1.686
1.657
1.637
1.652
1.662
1.652
1.637
1.647
1.676
1.667
1.652
1.672
1.696
1.696
1.676
1.667
1.676
1.667
1.632
1.632
1.662
1.672
1.662
1.657
1.672
1.686
1.657
1.642
1.652
1.672
1.662
1.642
1.657
1.686
1.681
1.662
1.672
1.686
1.681
1.667
1.667
1.686
1.681
1.647
1.642
1.662
1.672
1.662
1.662
1.686
1.706
1.681
1.667
1.686
1.696
1.681
1.657
1.657
1.676
1.667
1.642
1.657
1.676
1.672
1.652
1.652
1.676
1.676
1.642
1.632
1.657
1.667
1.662
1.657
1.676
1.691
1.662
1.647
1.662
1.672
1.662
1.657
1.676
1.706
1.696
1.672
1.681
1.701
1.701
1.681
1.676
1.701
1.706
1.686
1.686
1.716
1.735
1.725
1.72
1.735
1.745
1.716
1.696
1.716
1.73
1.72
1.701
1.706
1.72
1.706
1.672
1.676
1.696
1.696
1.676
1.667
1.686
1.686
1.652
1.647
1.662
1.662
1.647
1.632
1.652
1.672
1.652
1.637
1.652
1.667
1.662
1.642
1.647
1.672
1.657
1.637
1.647
1.667
1.662
1.647
1.647
1.667
1.667
1.637
1.628
1.647
1.657
1.652
1.647
1.681
1.716
1.711
1.711
1.745
1.789
1.808
1.828
1.867
1.931
1.965
1.989
2.038
2.092
2.102
2.082
2.043
2.019
1.955
1.848
1.755
1.686
1.618
1.544
1.5
1.505
1.52
1.515
1.525
1.569
1.618
1.637
1.637
1.652
1.676
1.662
1.637
1.652
1.672
1.672
1.662
1.662
1.676
1.672
1.628
1.618
1.632
1.642
1.628
1.623
1.642
1.662
1.647
1.637
1.662
1.681
1.676
1.662
1.672
1.696
1.686
1.662
1.667
1.691
1.686
1.672
1.672
1.691
1.701
1.672
1.667
1.691
1.701
1.691
1.681
1.696
1.711
1.686
1.667
1.686
1.701
1.696
1.681
1.696
1.72
1.706
1.676
1.686
1.711
1.711
1.701
1.706
1.735
1.75
1.725
1.72
1.73
1.735
1.716
1.696
1.701
1.711
1.686
1.672
1.696
1.72
1.73
1.725
1.735
1.76
1.75
1.72
1.725
1.74
1.74
1.725
1.73
1.764
1.784
1.764
1.764
1.784
1.789
1.769
1.755
1.76
1.774
1.745
1.725
1.75
1.774
1.774
1.764
1.764
1.779
1.76
1.73
1.73
1.745
1.74
1.72
1.716
1.735
1.74
1.711
1.701
1.72
1.725
1.706
1.681
1.686
1.696
1.672
1.652
1.662
1.676
1.667
1.652
1.652
1.672
1.652
1.618
1.623
1.642
1.652
1.642
1.647
1.672
1.681
1.647
1.637
1.657
1.662
1.647
1.637
1.647
1.667
1.642
1.623
1.632
1.647
1.642
1.628
1.637
1.662
1.662
1.637
1.642
1.662
1.657
1.632
1.628
1.642
1.652
1.628
1.632
1.662
1.672
1.662
1.652
1.667
1.676
1.652
1.623
1.637
1.652
1.642
1.632
1.637
1.662
1.652
1.628
1.637
1.662
1.667
1.657
1.652
1.676
1.686
1.662
1.652
1.672
1.672
1.662
1.647
1.662
1.672
1.642
1.623
1.637
1.657
1.657
1.642
1.652
1.676
1.667
1.637
1.647
1.662
1.662
1.642
1.637
1.657
1.662
1.637
1.632
1.662
1.672
1.662
1.652
1.667
1.691
1.667
1.652
1.667
1.686
1.686
1.681
1.696
1.716
1.701
1.667
1.657
1.667
1.662
1.642
1.637
1.657
1.672
1.652
1.652
1.676
1.686
1.676
1.662
1.672
1.686
1.657
1.637
1.652
1.672
1.667
1.657
1.667
1.691
1.681
1.657
1.662
1.676
1.676
1.662
1.662
1.686
1.691
1.662
1.652
1.672
1.676
1.662
1.652
1.667
1.691
1.681
1.672
1.696
1.716
1.716
1.706
1.711
1.73
1.725
1.711
1.725
1.745
1.745
1.725
1.716
1.725
1.72
1.686
1.672
1.696
1.706
1.696
1.681
1.691
1.696
1.667
1.642
1.652
1.667
1.667
1.657
1.672
1.701
1.691
1.662
1.657
1.667
1.662
1.642
1.632
1.657
1.662
1.637
1.632
1.652
1.662
1.647
1.632
1.647
1.662
1.642
1.623
1.642
1.662
1.657
1.647
1.652
1.681
1.667
1.642
1.652
1.686
1.701
1.706
1.725
1.769
1.804
1.804
1.833
1.887
1.94
1.979
2.009
2.058
2.097
2.082
2.048
2.028
1.984
1.906
1.808
1.72
1.657
1.579
1.505
1.481
1.496
1.505
1.515
1.535
1.588
1.632
1.628
1.637
1.667
1.676
1.662
1.652
1.662
1.681
1.657
1.637
1.642
1.662
1.647
1.628
1.628
1.652
1.647
1.628
1.637
1.662
1.662
1.657
1.657
1.681
1.691
1.667
1.662
1.676
1.676
1.662
1.647
1.657
1.676
1.657
1.642
1.662
1.691
1.696
1.681
1.681
1.696
1.681
1.652
1.657
1.686
1.691
1.681
1.681
1.706
1.716
1.686
1.676
1.691
1.696
1.681
1.672
1.681
1.701
1.681
1.667
1.686
1.706
1.711
1.706
1.72
1.745
1.74
1.716
1.72
1.745
1.745
1.73
1.73
1.755
1.764
1.74
1.73
1.75
1.76
1.75
1.73
1.74
1.76
1.745
1.72
1.73
1.75
1.745
1.735
1.745
1.774
1.769
1.745
1.755
1.779
1.774
1.755
1.74
1.75
1.75
1.711
1.701
1.725
1.74
1.735
1.73
1.745
1.769
1.745
1.725
1.735
1.745
1.73
1.701
1.696
1.706
1.691
1.657
1.657
1.681
1.686
1.672
1.667
1.686
1.696
1.662
1.652
1.667
1.672
1.652
1.632
1.647
1.667
1.647
1.632
1.642
1.662
1.652
1.637
1.637
1.657
1.647
1.618
1.618
1.637
1.642
1.632
1.628
1.652
1.662
1.628
1.613
1.632
1.642
1.632
1.623
1.642
1.667
1.647
1.623
1.637
1.652
1.642
1.623
1.628
1.652
1.647
1.628
1.637
1.667
1.672
1.652
1.642
1.657
1.662
1.632
1.623
1.642
1.652
1.637
1.628
1.642
1.662
1.642
1.618
1.637
1.657
1.657
1.642
1.647
1.672
1.667
1.642
1.642
1.662
1.662
1.647
1.642
1.662
1.676
1.647
1.637
1.657
1.672
1.662
1.647
1.657
1.672
1.647
1.623
1.632
1.642
1.637
1.618
1.628
1.657
1.657
1.637
1.642
1.672
1.676
1.667
1.662
1.676
1.681
1.652
1.637
1.657
1.676
1.667
1.657
1.672
1.691
1.667
1.642
1.647
1.662
1.657
1.642
1.652
1.676
1.676
1.647
1.652
1.676
1.676
1.662
1.657
1.676
1.681
1.652
1.642
1.667
1.681
1.681
1.672
1.681
1.701
1.681
1.662
1.667
1.681
1.672
1.652
1.662
1.686
1.691
1.672
1.681
1.706
1.716
1.701
1.696
1.716
1.72
1.691
1.676
1.691
1.706
1.696
1.676
1.681
1.696
1.676
1.652
1.662
1.672
1.662
1.642
1.642
1.667
1.662
1.642
1.652
1.676
1.681
1.662
1.652
1.667
1.672
1.637
1.618
1.637
1.647
1.637
1.628
1.642
1.667
1.652
1.628
1.642
1.662
1.652
1.632
1.632
1.652
1.647
1.623
1.632
1.662
1.681
1.681
1.696
1.735
1.769
1.76
1.769
1.818
1.862
1.891
1.921
1.975
2.028
2.033
2.019
2.023
2.014
1.96
1.872
1.789
1.72
1.637
1.544
1.496
1.486
1.481
1.476
1.496
1.549
1.598
1.608
1.623
1.662
1.686
1.681
1.672
1.681
1.691
1.662
1.632
1.632
1.642
1.632
1.623
1.628
1.657
1.652
1.628
1.632
1.652
1.652
1.632
1.628
1.647
1.657
1.632
1.623
1.642
1.662
1.657
1.652
1.672
1.696
1.681
1.657
1.667
1.681
1.676
1.657
1.657
1.676
1.676
1.647
1.652
1.681
1.686
1.676
1.676
1.701
1.72
1.696
1.686
1.711
1.716
1.701
1.681
1.691
1.706
1.691
1.672
1.691
1.72
1.725
1.711
1.716
1.735
1.725
1.696
1.691
1.711
1.716
1.706
1.706
1.735
1.755
1.725
1.72
1.74
1.755
1.74
1.72
1.72
1.74
1.72
1.711
1.73
1.76
1.769
1.764
1.769
1.794
1.784
1.755
1.745
1.764
1.76
1.745
1.735
1.76
1.774
1.75
1.745
1.76
1.769
1.755
1.735
1.745
1.76
1.735
1.701
1.706
1.716
1.711
1.696
1.696
1.72
1.716
1.686
1.681
1.706
1.701
1.676
1.662
1.672
1.676
1.652
1.642
1.667
1.681
1.667
1.647
1.647
1.662
1.642
1.613
1.623
1.642
1.637
1.623
1.628
1.647
1.642
1.608
1.608
1.637
1.642
1.637
1.637
1.667
1.681
1.652
1.637
1.642
1.647
1.628
1.608
1.618
1.637
1.623
1.593
1.608
1.632
1.642
1.632
1.637
1.657
1.657
1.628
1.623
1.647
1.647
1.637
1.632
1.657
1.672
1.647
1.632
1.652
1.662
1.647
1.632
1.647
1.662
1.647
1.628
1.642
1.667
1.657
1.637
1.637
1.662
1.657
1.632
1.637
1.662
1.662
1.647
1.642
1.667
1.681
1.657
1.647
1.667
1.681
1.672
1.652
1.662
1.676
1.657
1.628
1.647
1.672
1.676
1.657
1.657
1.676
1.672
1.632
1.628
1.647
1.652
1.642
1.647
1.676
1.701
1.681
1.672
1.686
1.696
1.686
1.672
1.681
1.701
1.676
1.642
1.652
1.667
1.657
1.632
1.623
1.642
1.652
1.632
1.642
1.667
1.672
1.662
1.657
1.681
1.691
1.662
1.652
1.667
1.681
1.672
1.657
1.667
1.686
1.672
1.652
1.672
1.696
1.701
1.691
1.701
1.725
1.725
1.696
1.701
1.725
1.73
1.716
1.701
1.72
1.73
1.696
1.681
1.691
1.696
1.681
1.657
1.657
1.672
1.647
1.623
1.632
1.652
1.657
1.647
1.657
1.691
1.696
1.667
1.657
1.672
1.667
1.647
1.628
1.637
1.647
1.618
1.603
1.628
1.642
1.637
1.628
1.637
1.657
1.642
1.618
1.628
1.647
1.642
1.628
1.628
1.662
1.667
1.652
1.662
1.701
1.72
1.725
1.735
1.769
1.804
1.799
1.818
1.872
1.931
1.97
2.004
2.043
2.082
2.067
2.019
1.984
1.945
1.857
1.755
1.667
1.618
1.564
1.496
1.476
1.491
1.505
1.51
1.53
1.574
1.618
1.618
1.623
1.652
1.667
1.652
1.628
1.632
1.642
1.623
1.598
1.613
1.637
1.642
1.632
1.632
1.647
1.647
1.618
1.613
1.637
1.642
1.632
1.632
1.662
1.681
1.662
1.652
1.672
1.691
1.681
1.672
1.676
1.696
1.676
1.647
1.657
1.681
1.681
1.667
1.676
1.701
1.701
1.676
1.667
1.686
1.691
1.676
1.667
1.691
1.711
1.691
1.686
1.711
1.73
1.72
1.701
1.696
1.706
1.681
1.652
1.657
1.676
1.676
1.672
1.681
1.711
1.72
1.696
1.696
1.72
1.73
1.72
1.716
1.74
1.76
1.73
1.716
1.73
1.74
1.725
1.711
1.725
1.745
1.74
1.72
1.735
1.76
1.764
1.755
1.755
1.774
1.774
1.745
1.74
1.76
1.764
1.745
1.73
1.75
1.76
1.735
1.72
1.745
1.76
1.755
1.74
1.745
1.76
1.74
1.711
1.716
1.735
1.725
1.716
1.716
1.735
1.73
1.691
1.681
1.696
1.691
1.667
1.642
1.647
1.657
1.628
1.613
1.628
1.642
1.637
1.623
1.637
1.667
1.662
1.642
1.657
1.676
1.672
1.647
1.637
1.647
1.642
1.608
1.608
1.632
1.647
1.637
1.632
1.652
1.667
1.642
1.628
1.642
1.652
1.642
1.632
1.642
1.672
1.657
1.632
1.637
1.657
1.652
1.628
1.623
1.642
1.647
1.623
1.623
1.647
1.657
1.657
1.652
1.672
1.681
1.657
1.642
1.657
1.667
1.652
1.628
1.637
1.662
1.652
1.632
1.647
1.676
1.676
1.662
1.657
1.672
1.662
1.623
1.618
1.637
1.647
1.637
1.637
1.662
1.681
1.662
1.642
1.652
1.662
1.642
1.623
1.632
1.652
1.642
1.632
1.652
1.681
1.691
1.681
1.686
1.706
1.706
1.672
1.662
1.681
1.686
1.667
1.652
1.667
1.676
1.652
1.637
1.657
1.676
1.672
1.662
1.672
1.691
1.676
1.652
1.662
1.681
1.672
1.652
1.647
1.667
1.667
1.642
1.637
1.662
1.667
1.657
1.647
1.662
1.681
1.662
1.652
1.672
1.681
1.672
1.657
1.667
1.686
1.672
1.647
1.657
1.681
1.686
1.686
1.691
1.72
1.73
1.701
1.706
1.725
1.73
1.716
1.701
1.711
1.72
1.691
1.672
1.691
1.706
1.701
1.686
1.696
1.716
1.701
1.672
1.676
1.691
1.686
1.667
1.662
1.676
1.672
1.637
1.632
1.652
1.657
1.647
1.637
1.662
1.676
1.657
1.637
1.657
1.672
1.657
1.642
1.647
1.662
1.642
1.608
1.608
1.632
1.632
1.623
1.628
1.657
1.662
1.632
1.632
1.657
1.667
1.662
1.662
1.701
1.745
1.755
1.774
1.823
1.877
1.906
1.931
1.984
2.048
2.063
2.058
2.067
2.072
2.038
1.97
1.891
1.823
1.73
1.623
1.554
1.53
1.51
1.496
1.496
1.535
1.588
1.598
1.613
1.647
1.672
1.667
1.647
1.652
1.672
1.652
1.623
1.628
1.647
1.647
1.632
1.632
1.652
1.657
1.628
1.623
1.642
1.652
1.642
1.637
1.662
1.681
1.657
1.647
1.672
1.686
1.676
1.662
1.662
1.686
1.676
1.652
1.662
1.686
1.691
1.672
1.667
1.681
1.672
1.642
1.637
1.667
1.686
1.681
1.681
1.706
1.725
1.711
1.691
1.701
1.711
1.691
1.676
1.686
1.711
1.701
1.676
1.686
1.711
1.711
1.696
1.691
1.716
1.716
1.686
1.691
1.716
1.725
1.72
1.716
1.74
1.76
1.73
1.706
1.72
1.735
1.73
1.72
1.735
1.76
1.76
1.735
1.75
1.779
1.774
1.755
1.745
1.764
1.764
1.73
1.716
1.73
1.74
1.735
1.73
1.75
1.774
1.755
1.745
1.764
1.774
1.76
1.73
1.72
1.735
1.725
1.701
1.711
1.74
1.74
1.725
1.725
1.745
1.74
1.701
1.681
1.691
1.696
1.676
1.667
1.676
1.686
1.657
1.637
1.652
1.667
1.662
1.647
1.662
1.691
1.686
1.657
1.657
1.672
1.662
1.637
1.628
1.642
1.642
1.613
1.613
1.637
1.652
1.647
1.642
1.657
1.672
1.647
1.628
1.632
1.642
1.623
1.598
1.598
1.623
1.613
1.593
1.618
1.657
1.672
1.667
1.676
1.706
1.706
1.672
1.667
1.681
1.681
1.662
1.647
1.662
1.676
1.647
1.623
1.637
1.657
1.647
1.623
1.618
1.637
1.623
1.598
1.608
1.632
1.642
1.637
1.647
1.676
1.681
1.652
1.652
1.672
1.681
1.667
1.657
1.672
1.691
1.667
1.642
1.652
1.667
1.662
1.647
1.652
1.676
1.672
1.647
1.657
1.681
1.681
1.662
1.662
1.686
1.691
1.667
1.657
1.676
1.681
1.662
1.642
1.657
1.676
1.657
1.637
1.657
1.676
1.672
1.657
1.662
1.681
1.662
1.632
1.637
1.657
1.662
1.652
1.657
1.686
1.696
1.667
1.652
1.672
1.672
1.657
1.642
1.657
1.676
1.657
1.642
1.657
1.672
1.667
1.657
1.667
1.696
1.696
1.681
1.691
1.716
1.711
1.691
1.681
1.701
1.706
1.681
1.676
1.701
1.716
1.711
1.706
1.725
1.745
1.72
1.706
1.716
1.73
1.716
1.691
1.686
1.706
1.691
1.662
1.667
1.691
1.691
1.672
1.667
1.681
1.672
1.628
1.608
1.623
1.632
1.628
1.628
1.657
1.681
1.667
1.652
1.667
1.681
1.672
1.647
1.642
1.662
1.652
1.628
1.642
1.667
1.672
1.652
1.642
1.662
1.662
1.628
1.623
1.637
1.647
1.632
1.623
1.637
1.667
1.657
1.662
1.696
1.735
1.755
1.764
1.794
1.848
1.882
1.901
1.955
2.023
2.067
2.082
2.087
2.092
2.058
1.965
1.877
1.799
1.711
1.608
1.53
1.496
1.486
1.466
1.461
1.505
1.559
1.593
1.613
1.642
1.681
1.672
1.642
1.637
1.657
1.657
1.642
1.642
1.667
1.676
1.647
1.642
1.662
1.672
1.657
1.642
1.652
1.667
1.642
1.623
1.637
1.657
1.652
1.637
1.647
1.667
1.662
1.637
1.642
1.672
1.672
1.657
1.652
1.676
1.686
1.662
1.657
1.676
1.686
1.681
1.672
1.681
1.696
1.667
1.647
1.667
1.686
1.686
1.672
1.681
1.706
1.706
1.681
1.686
1.706
1.701
1.686
1.686
1.711
1.72
1.696
1.686
1.701
1.711
1.701
1.691
1.711
1.735
1.72
1.706
1.73
1.75
1.75
1.735
1.735
1.755
1.74
1.711
1.711
1.735
1.735
1.716
1.706
1.73
1.74
1.716
1.716
1.745
1.769
1.764
1.76
1.774
1.794
1.774
1.745
1.75
1.764
1.76
1.745
1.745
1.764
1.755
1.725
1.73
1.745
1.745
1.73
1.725
1.745
1.75
1.716
1.701
1.711
1.716
1.696
1.681
1.691
1.706
1.681
1.657
1.667
1.672
1.662
1.642
1.642
1.662
1.652
1.628
1.632
1.657
1.652
1.637
1.628
1.652
1.662
1.632
1.628
1.647
1.657
1.642
1.628
1.642
1.662
1.642
1.623
1.637
1.652
1.647
1.628
1.628
1.642
1.637
1.613
1.623
1.652
1.662
1.657
1.662
1.686
1.696
1.662
1.647
1.657
1.657
1.632
1.608
1.613
1.628
1.608
1.588
1.608
1.632
1.637
1.628
1.642
1.662
1.652
1.623
1.628
1.652
1.662
1.652
1.647
1.667
1.676
1.652
1.647
1.667
1.672
1.647
1.628
1.642
1.662
1.637
1.618
1.632
1.657
1.652
1.642
1.652
1.676
1.667
1.637
1.642
1.667
1.672
1.662
1.657
1.676
1.691
1.662
1.652
1.672
1.676
1.667
1.652
1.667
1.686
1.662
1.637
1.647
1.662
1.652
1.628
1.628
1.647
1.642
1.613
1.618
1.642
1.652
1.637
1.632
1.652
1.662
1.637
1.632
1.657
1.672
1.667
1.662
1.681
1.701
1.676
1.657
1.672
1.691
1.686
1.672
1.676
1.706
1.696
1.667
1.672
1.696
1.701
1.691
1.686
1.706
1.716
1.686
1.676
1.696
1.701
1.696
1.686
1.706
1.725
1.706
1.681
1.691
1.701
1.686
1.662
1.652
1.667
1.657
1.628
1.632
1.652
1.657
1.642
1.637
1.662
1.676
1.652
1.642
1.657
1.662
1.647
1.632
1.637
1.657
1.637
1.623
1.642
1.662
1.662
1.652
1.657
1.672
1.657
1.618
1.618
1.632
1.632
1.618
1.613
1.632
1.642
1.613
1.613
1.647
1.681
1.696
1.711
1.75
1.794
1.799
1.799
1.833
1.872
1.887
1.896
1.926
1.975
1.989
1.97
1.97
1.975
1.94
1.867
1.784
1.72
1.657
1.569
1.515
1.51
1.515
1.51
1.52
1.559
1.608
1.618
1.608
1.632
1.647
1.642
1.628
1.637
1.667
1.667
1.642
1.642
1.662
1.657
1.632
1.623
1.642
1.652
1.632
1.628
1.652
1.672
1.662
1.642
1.652
1.672
1.652
1.637
1.657
1.681
1.686
1.672
1.672
1.691
1.681
1.647
1.647
1.672
1.681
1.672
1.667
1.691
1.701
1.667
1.657
1.667
1.681
1.672
1.667
1.686
1.716
1.706
1.696
1.716
1.735
1.73
1.716
1.711
1.725
1.716
1.686
1.691
1.716
1.725
1.716
1.711
1.73
1.74
1.716
1.701
1.72
1.735
1.73
1.72
1.74
1.76
1.745
1.725
1.73
1.75
1.75
1.73
1.735
1.764
1.764
1.735
1.74
1.76
1.76
1.75
1.74
1.76
1.769
1.745
1.735
1.76
1.774
1.769
1.755
1.769
1.794
1.779
1.755
1.764
1.779
1.769
1.75
1.745
1.76
1.75
1.716
1.716
1.73
1.735
1.716
1.706
1.72
1.725
1.691
1.681
1.696
1.706
1.686
1.672
1.676
1.691
1.667
1.642
1.652
1.672
1.667
1.647
1.652
1.672
1.667
1.632
1.628
1.647
1.647
1.628
1.613
1.628
1.632
1.608
1.598
1.618
1.637
1.637
1.637
1.662
1.686
1.672
1.647
1.657
1.667
1.657
1.637
1.632
1.652
1.647
1.618
1.613
1.637
1.637
1.628
1.623
1.647
1.662
1.642
1.632
1.657
1.672
1.657
1.642
1.652
1.676
1.662
1.637
1.647
1.662
1.657
1.642
1.647
1.672
1.672
1.637
1.642
1.667
1.672
1.652
1.642
1.657
1.662
1.632
1.618
1.632
1.647
1.652
1.647
1.667
1.696
1.686
1.662
1.672
1.686
1.676
1.652
1.647
1.667
1.662
1.637
1.642
1.672
1.676
1.667
1.657
1.667
1.676
1.647
1.632
1.657
1.672
1.667
1.662
1.676
1.701
1.686
1.662
1.676
1.691
1.686
1.672
1.667
1.686
1.676
1.647
1.642
1.662
1.662
1.642
1.637
1.662
1.681
1.657
1.647
1.667
1.681
1.672
1.657
1.667
1.691
1.676
1.662
1.676
1.706
1.711
1.706
1.711
1.735
1.725
1.691
1.686
1.701
1.701
1.681
1.672
1.691
1.711
1.691
1.691
1.716
1.735
1.73
1.711
1.716
1.725
1.701
1.662
1.657
1.662
1.652
1.637
1.637
1.667
1.672
1.642
1.647
1.672
1.676
1.662
1.647
1.662
1.667
1.637
1.628
1.647
1.662
1.657
1.637
1.642
1.657
1.642
1.623
1.632
1.652
1.647
1.632
1.637
1.662
1.657
1.628
1.628
1.652
1.662
1.662
1.667
1.701
1.725
1.72
1.725
1.764
1.794
1.813
1.833
1.882
1.955
1.989
2.019
2.063
2.097
2.092
2.048
1.999
1.945
1.852
1.725
1.632
1.579
1.53
1.486
1.466
1.491
1.535
1.544
1.569
1.618
1.652
1.657
1.647
1.652
1.662
1.637
1.613
1.623
1.642
1.647
1.642
1.647
1.676
1.676
1.642
1.637
1.662
1.667
1.652
1.647
1.667
1.681
1.652
1.642
1.657
1.672
1.662
1.642
1.652
1.672
1.662
1.642
1.657
1.681
1.681
1.672
1.672
1.696
1.691
1.662
1.662
1.676
1.681
1.667
1.662
1.686
1.701
1.676
1.672
1.691
1.716
1.711
1.701
1.716
1.735
1.716
1.681
1.686
1.696
1.696
1.681
1.691
1.716
1.72
1.701
1.706
1.73
1.735
1.72
1.711
1.735
1.75
1.735
1.725
1.75
1.769
1.755
1.735
1.735
1.75
1.73
1.706
1.72
1.745
1.75
1.74
1.745
1.774
1.779
1.75
1.745
1.764
1.769
1.755
1.745
1.764
1.774
1.75
1.74
1.76
1.774
1.764
1.745
1.75
1.769
1.745
1.72
1.73
1.75
1.745
1.725
1.725
1.745
1.735
1.701
1.696
1.711
1.706
1.681
1.667
1.672
1.681
1.657
1.642
1.662
1.672
1.662
1.642
1.647
1.667
1.652
1.628
1.637
1.657
1.662
1.652
1.657
1.686
1.686
1.657
1.652
1.672
1.676
1.662
1.647
1.657
1.662
1.628
1.608
1.623
1.637
1.637
1.628
1.642
1.672
1.657
1.637
1.642
1.662
1.657
1.642
1.637
1.662
1.667
1.642
1.642
1.667
1.672
1.662
1.652
1.667
1.676
1.642
1.628
1.642
1.647
1.637
1.623
1.637
1.662
1.647
1.632
1.647
1.672
1.672
1.662
1.662
1.686
1.681
1.647
1.637
1.652
1.652
1.637
1.637
1.657
1.676
1.652
1.647
1.672
1.686
1.676
1.662
1.662
1.681
1.662
1.637
1.647
1.672
1.672
1.662
1.667
1.686
1.686
1.652
1.647
1.672
1.676
1.667
1.657
1.672
1.681
1.652
1.637
1.652
1.667
1.657
1.642
1.657
1.681
1.676
1.657
1.667
1.686
1.681
1.662
1.657
1.676
1.672
1.642
1.637
1.662
1.667
1.657
1.647
1.667
1.681
1.657
1.642
1.662
1.681
1.676
1.667
1.681
1.711
1.711
1.691
1.701
1.72
1.711
1.686
1.676
1.696
1.691
1.662
1.667
1.696
1.711
1.701
1.701
1.72
1.735
1.716
1.696
1.711
1.725
1.716
1.701
1.711
1.725
1.706
1.676
1.681
1.696
1.681
1.657
1.642
1.657
1.652
1.628
1.623
1.647
1.657
1.652
1.652
1.672
1.686
1.657
1.637
1.647
1.662
1.652
1.637
1.652
1.672
1.657
1.632
1.642
1.662
1.657
1.637
1.637
1.657
1.662
1.632
1.628
1.642
1.647
1.637
1.632
1.657
1.686
1.676
1.691
1.74
1.784
1.808
1.823
1.872
1.935
1.97
1.989
2.038
2.087
2.097
2.077
2.053
2.033
1.97
1.862
1.769
1.701
1.632
1.564
1.515
1.52
1.535
1.52
1.53
1.574
1.623
1.637
1.632
1.642
1.667
1.652
1.618
1.623
1.642
1.642
1.632
1.637
1.667
1.667
1.637
1.628
1.642
1.647
1.632
1.628
1.652
1.667
1.647
1.642
1.662
1.681
1.681
1.672
1.676
1.701
1.691
1.662
1.667
1.686
1.681
1.667
1.662
1.691
1.696
1.672
1.672
1.701
1.711
1.701
1.686
1.691
1.706
1.686
1.672
1.691
1.716
1.716
1.701
1.701
1.72
1.696
1.662
1.657
1.672
1.672
1.667
1.676
1.716
1.725
1.706
1.706
1.725
1.73
1.711
1.706
1.72
1.74
1.72
1.706
1.725
1.74
1.735
1.716
1.725
1.75
1.745
1.73
1.75
1.779
1.789
1.779
1.774
1.789
1.784
1.75
1.74
1.755
1.76
1.74
1.73
1.74
1.76
1.74
1.725
1.745
1.764
1.755
1.745
1.755
1.784
1.769
1.74
1.745
1.764
1.755
1.735
1.73
1.74
1.735
1.691
1.676
1.691
1.691
1.672
1.667
1.681
1.701
1.676
1.662
1.676
1.691
1.681
1.662
1.672
1.691
1.676
1.652
1.652
1.672
1.672
1.647
1.637
1.652
1.647
1.618
1.618
1.642
1.652
1.647
1.637
1.652
1.667
1.647
1.628
1.642
1.657
1.647
1.628
1.637
1.662
1.657
1.637
1.652
1.676
1.676
1.662
1.647
1.662
1.652
1.618
1.608
1.637
1.652
1.647
1.647
1.667
1.686
1.657
1.637
1.652
1.667
1.657
1.637
1.637
1.662
1.657
1.637
1.647
1.672
1.672
1.657
1.657
1.676
1.676
1.642
1.628
1.647
1.662
1.652
1.642
1.662
1.676
1.647
1.623
1.632
1.647
1.642
1.632
1.647
1.676
1.672
1.647
1.652
1.672
1.667
1.647
1.642
1.667
1.676
1.657
1.652
1.676
1.691
1.681
1.667
1.681
1.706
1.691
1.681
1.691
1.701
1.686
1.657
1.652
1.667
1.647
1.613
1.618
1.652
1.662
1.657
1.657
1.681
1.681
1.647
1.637
1.657
1.662
1.647
1.637
1.657
1.681
1.667
1.652
1.662
1.676
1.672
1.652
1.662
1.686
1.681
1.657
1.662
1.681
1.681
1.672
1.672
1.696
1.701
1.676
1.676
1.696
1.696
1.676
1.657
1.662
1.676
1.652
1.637
1.662
1.691
1.696
1.681
1.696
1.72
1.711
1.681
1.676
1.696
1.696
1.686
1.691
1.72
1.725
1.701
1.696
1.716
1.725
1.716
1.701
1.711
1.72
1.696
1.681
1.696
1.716
1.701
1.681
1.681
1.696
1.681
1.652
1.652
1.672
1.672
1.662
1.657
1.681
1.691
1.657
1.647
1.667
1.672
1.657
1.647
1.662
1.676
1.652
1.628
1.647
1.667
1.657
1.642
1.647
1.672
1.667
1.642
1.642
1.657
1.647
1.628
1.618
1.637
1.647
1.628
1.632
1.672
1.696
1.706
1.716
1.75
1.794
1.799
1.813
1.862
1.921
1.955
1.984
2.033
2.077
2.077
2.043
2.028
2.014
1.955
1.862
1.774
1.716
1.647
1.559
1.52
1.52
1.53
1.535
1.54
1.579
1.623
1.623
1.618
1.642
1.667
1.662
1.642
1.647
1.662
1.647
1.618
1.623
1.642
1.652
1.637
1.632
1.662
1.672
1.647
1.642
1.662
1.672
1.657
1.637
1.647
1.662
1.637
1.623
1.642
1.662
1.662
1.657
1.667
1.696
1.691
1.672
1.676
1.691
1.686
1.662
1.652
1.672
1.676
1.647
1.642
1.667
1.686
1.681
1.676
1.696
1.716
1.696
1.681
1.701
1.716
1.711
1.701
1.711
1.74
1.73
1.701
1.701
1.716
1.711
1.691
1.681
1.701
1.711
1.681
1.686
1.716
1.73
1.725
1.716
1.735
1.76
1.745
1.725
1.74
1.755
1.75
1.735
1.74
1.769
1.764
1.735
1.745
1.764
1.764
1.75
1.745
1.76
1.76
1.725
1.716
1.74
1.755
1.75
1.74
1.755
1.769
1.745
1.72
1.735
1.75
1.75
1.735
1.74
1.764
1.755
1.725
1.73
1.745
1.74
1.72
1.706
1.72
1.72
1.686
1.667
1.676
1.676
1.657
1.647
1.662
1.686
1.672
1.657
1.672
1.691
1.681
1.667
1.667
1.681
1.672
1.637
1.642
1.657
1.652
1.632
1.628
1.647
1.657
1.632
1.628
1.657
1.662
1.647
1.632
1.647
1.667
1.642
1.623
1.637
1.657
1.652
1.637
1.642
1.662
1.652
1.623
1.628
1.647
1.652
1.647
1.647
1.672
1.681
1.647
1.637
1.647
1.647
1.628
1.613
1.628
1.652
1.642
1.632
1.647
1.672
1.667
1.652
1.652
1.667
1.652
1.623
1.628
1.652
1.657
1.642
1.642
1.667
1.676
1.642
1.632
1.652
1.662
1.647
1.637
1.652
1.676
1.662
1.642
1.652
1.672
1.672
1.657
1.657
1.672
1.662
1.632
1.637
1.667
1.672
1.662
1.662
1.686
1.696
1.667
1.652
1.667
1.667
1.652
1.632
1.642
1.662
1.642
1.623
1.637
1.657
1.647
1.632
1.642
1.672
1.672
1.647
1.652
1.676
1.676
1.657
1.647
1.667
1.672
1.642
1.637
1.662
1.672
1.662
1.647
1.657
1.676
1.652
1.632
1.647
1.667
1.662
1.647
1.657
1.681
1.672
1.637
1.637
1.667
1.676
1.667
1.662
1.686
1.691
1.662
1.652
1.672
1.672
1.657
1.637
1.647
1.667
1.652
1.632
1.642
1.667
1.667
1.652
1.662
1.681
1.676
1.652
1.657
1.676
1.676
1.662
1.652
1.672
1.681
1.657
1.657
1.681
1.706
1.706
1.701
1.711
1.735
1.725
1.706
1.716
1.725
1.716
1.701
1.701
1.725
1.72
1.691
1.686
1.706
1.706
1.681
1.667
1.676
1.681
1.642
1.628
1.642
1.652
1.642
1.632
1.647
1.672
1.652
1.632
1.647
1.667
1.662
1.647
1.647
1.667
1.657
1.628
1.632
1.657
1.652
1.637
1.628
1.647
1.652
1.628
1.623
1.647
1.662
1.662
1.652
1.667
1.686
1.667
1.647
1.662
1.691
1.696
1.696
1.72
1.769
1.789
1.784
1.813
1.867
1.911
1.94
1.975
2.028
2.058
2.043
2.023
2.019
1.989
1.911
1.813
1.74
1.676
1.588
1.515
1.496
1.496
1.491
1.491
1.53
1.588
1.618
1.618
1.637
1.672
1.676
1.662
1.652
1.672
1.676
1.642
1.628
1.652
1.662
1.652
1.637
1.652
1.672
1.647
1.623
1.637
1.662
1.662
1.647
1.652
1.676
1.672
1.647
1.652
1.672
1.676
1.657
1.647
1.667
1.676
1.652
1.642
1.667
1.681
1.676
1.662
1.676
1.696
1.672
1.647
1.662
1.681
1.676
1.667
1.676
1.706
1.711
1.686
1.686
1.706
1.711
1.696
1.686
1.701
1.711
1.681
1.681
1.716
1.735
1.73
1.716
1.73
1.75
1.73
1.706
1.711
1.72
1.716
1.701
1.711
1.735
1.735
1.711
1.72
1.74
1.745
1.735
1.725
1.745
1.76
1.735
1.725
1.74
1.75
1.74
1.725
1.735
1.755
1.74
1.72
1.74
1.76
1.755
1.74
1.745
1.774
1.774
1.745
1.74
1.755
1.76
1.75
1.74
1.755
1.755
1.725
1.716
1.73
1.735
1.72
1.706
1.72
1.735
1.716
1.691
1.701
1.716
1.706
1.686
1.681
1.696
1.681
1.647
1.642
1.657
1.652
1.632
1.623
1.642
1.652
1.628
1.623
1.647
1.662
1.652
1.637
1.642
1.662
1.642
1.623
1.632
1.652
1.642
1.623
1.618
1.637
1.632
1.603
1.608
1.637
1.642
1.632
1.628
1.652
1.672
1.647
1.642
1.667
1.676
1.662
1.652
1.667
1.686
1.667
1.642
1.652
1.672
1.662
1.642
1.637
1.652
1.637
1.603
1.603
1.623
1.632
1.623
1.623
1.652
1.676
1.652
1.647
1.667
1.686
1.676
1.657
1.662
1.676
1.652
1.628
1.632
1.647
1.642
1.628
1.632
1.657
1.662
1.632
1.637
1.662
1.676
1.667
1.662
1.686
1.701
1.672
1.662
1.676
1.686
1.672
1.652
1.667
1.686
1.662
1.637
1.647
1.672
1.667
1.652
1.652
1.672
1.672
1.642
1.647
1.676
1.681
1.667
1.662
1.676
1.681
1.647
1.632
1.652
1.662
1.657
1.647
1.657
1.681
1.672
1.652
1.662
1.681
1.676
1.667
1.667
1.686
1.686
1.657
1.657
1.676
1.672
1.652
1.637
1.657
1.667
1.642
1.637
1.657
1.676
1.667
1.657
1.667
1.686
1.662
1.637
1.652
1.672
1.672
1.662
1.667
1.691
1.691
1.667
1.672
1.706
1.711
1.701
1.696
1.72
1.735
1.711
1.701
1.72
1.735
1.725
1.711
1.72
1.735
1.716
1.691
1.696
1.706
1.696
1.672
1.667
1.681
1.672
1.642
1.642
1.667
1.672
1.657
1.652
1.672
1.681
1.652
1.637
1.652
1.667
1.662
1.652
1.662
1.686
1.667
1.637
1.642
1.657
1.642
1.623
1.628
1.647
1.652
1.628
1.637
1.662
1.672
1.657
1.652
1.667
1.672
1.637
1.618
1.642
1.667
1.676
1.691
1.73
1.779
1.789
1.794
1.838
1.891
1.921
1.94
1.975
2.028
2.043
2.023
2.009
1.999
1.955
1.872
1.784
1.716
1.652
1.564
1.51
1.505
1.51
1.505
1.51
1.549
1.603
1.618
1.613
1.632
1.657
1.657
1.637
1.637
1.657
1.657
1.637
1.647
1.672
1.681
1.662
1.652
1.676
1.686
1.657
1.642
1.652
1.667
1.662
1.657
1.676
1.701
1.681
1.652
1.662
1.676
1.672
1.652
1.652
1.672
1.667
1.642
1.642
1.672
1.681
1.672
1.667
1.686
1.701
1.681
1.672
1.696
1.711
1.696
1.681
1.691
1.711
1.701
1.681
1.696
1.716
1.716
1.701
1.706
1.72
1.72
1.686
1.691
1.711
1.72
1.706
1.701
1.725
1.745
1.72
1.716
1.745
1.764
1.76
1.745
1.755
1.774
1.76
1.73
1.735
1.75
1.745
1.73
1.725
1.75
1.75
1.725
1.73
1.755
1.769
1.764
1.769
1.789
1.804
1.769
1.755
1.764
1.774
1.76
1.745
1.75
1.779
1.764
1.745
1.755
1.774
1.769
1.75
1.745
1.76
1.755
1.72
1.711
1.725
1.73
1.716
1.706
1.72
1.73
1.701
1.681
1.691
1.696
1.681
1.662
1.672
1.696
1.686
1.662
1.672
1.686
1.672
1.652
1.647
1.672
1.667
1.632
1.632
1.652
1.662
1.647
1.642
1.662
1.672
1.647
1.637
1.662
1.672
1.667
1.647
1.647
1.662
1.642
1.618
1.628
1.652
1.657
1.647
1.652
1.676
1.672
1.632
1.628
1.647
1.647
1.632
1.623
1.642
1.662
1.642
1.637
1.662
1.672
1.657
1.642
1.647
1.662
1.642
1.618
1.628
1.652
1.652
1.642
1.642
1.662
1.657
1.623
1.613
1.628
1.632
1.623
1.623
1.652
1.676
1.662
1.657
1.681
1.696
1.686
1.667
1.667
1.681
1.662
1.637
1.647
1.672
1.676
1.672
1.681
1.706
1.706
1.672
1.672
1.691
1.696
1.676
1.662
1.676
1.696
1.672
1.662
1.681
1.691
1.676
1.657
1.662
1.676
1.657
1.632
1.642
1.667
1.662
1.642
1.642
1.662
1.662
1.628
1.628
1.652
1.667
1.657
1.652
1.672
1.686
1.662
1.647
1.662
1.672
1.657
1.642
1.657
1.681
1.672
1.652
1.667
1.686
1.686
1.672
1.672
1.696
1.696
1.662
1.657
1.681
1.696
1.686
1.676
1.696
1.706
1.681
1.667
1.686
1.696
1.686
1.667
1.672
1.691
1.676
1.647
1.657
1.672
1.676
1.662
1.672
1.701
1.711
1.686
1.691
1.716
1.72
1.706
1.691
1.701
1.711
1.686
1.676
1.701
1.72
1.72
1.711
1.72
1.745
1.73
1.696
1.691
1.701
1.686
1.657
1.642
1.652
1.652
1.628
1.628
1.662
1.676
1.667
1.667
1.686
1.701
1.667
1.647
1.657
1.667
1.652
1.637
1.647
1.672
1.657
1.628
1.632
1.642
1.637
1.623
1.623
1.652
1.657
1.632
1.632
1.657
1.667
1.652
1.652
1.681
1.711
1.706
1.716
1.755
1.799
1.818
1.833
1.877
1.94
1.97
1.994
2.038
2.082
2.082
2.048
2.009
1.97
1.896
1.779
1.691
1.632
1.584
1.535
1.505
1.515
1.54
1.535
1.544
1.584
1.623
1.632
1.632
1.647
1.672
1.667
1.642
1.647
1.662
1.652
1.628
1.623
1.642
1.637
1.613
1.613
1.637
1.657
1.657
1.652
1.672
1.686
1.657
1.637
1.647
1.657
1.647
1.632
1.642
1.667
1.657
1.637
1.652
1.676
1.676
1.662
1.667
1.691
1.696
1.667
1.672
1.696
1.696
1.681
1.667
1.686
1.701
1.676
1.657
1.681
1.696
1.691
1.676
1.681
1.706
1.691
1.672
1.686
1.711
1.716
1.706
1.711
1.73
1.73
1.696
1.691
1.711
1.72
1.706
1.706
1.72
1.745
1.72
1.711
1.725
1.74
1.725
1.711
1.72
1.745
1.73
1.706
1.72
1.745
1.745
1.74
1.745
1.774
1.779
1.755
1.745
1.764
1.764
1.745
1.73
1.745
1.764
1.745
1.73
1.745
1.76
1.75
1.735
1.74
1.764
1.755
1.725
1.735
1.75
1.74
1.716
1.706
1.72
1.72
1.686
1.686
1.711
1.716
1.706
1.691
1.701
1.706
1.667
1.642
1.657
1.672
1.667
1.652
1.652
1.667
1.652
1.623
1.628
1.647
1.652
1.642
1.642
1.672
1.672
1.632
1.628
1.637
1.637
1.623
1.618
1.637
1.662
1.642
1.632
1.652
1.667
1.662
1.642
1.642
1.657
1.647
1.623
1.628
1.647
1.647
1.632
1.632
1.657
1.662
1.637
1.637
1.662
1.672
1.657
1.642
1.662
1.672
1.647
1.628
1.642
1.657
1.647
1.632
1.632
1.652
1.637
1.613
1.618
1.642
1.642
1.632
1.632
1.662
1.672
1.642
1.637
1.657
1.667
1.652
1.637
1.652
1.667
1.642
1.637
1.662
1.686
1.681
1.667
1.672
1.686
1.672
1.637
1.642
1.662
1.657
1.637
1.637
1.662
1.672
1.642
1.632
1.657
1.667
1.657
1.647
1.662
1.676
1.652
1.642
1.657
1.676
1.662
1.647
1.657
1.681
1.676
1.652
1.662
1.681
1.676
1.662
1.657
1.676
1.676
1.647
1.642
1.667
1.676
1.672
1.662
1.681
1.696
1.676
1.652
1.667
1.676
1.667
1.647
1.652
1.672
1.662
1.637
1.647
1.672
1.672
1.662
1.657
1.676
1.676
1.642
1.637
1.657
1.662
1.647
1.642
1.662
1.681
1.657
1.642
1.657
1.676
1.676
1.672
1.681
1.706
1.701
1.681
1.686
1.701
1.696
1.676
1.672
1.696
1.701
1.672
1.672
1.706
1.716
1.706
1.696
1.711
1.725
1.701
1.681
1.701
1.725
1.72
1.716
1.725
1.75
1.735
1.711
1.706
1.716
1.696
1.667
1.652
1.672
1.672
1.642
1.642
1.667
1.676
1.662
1.657
1.672
1.686
1.657
1.642
1.662
1.681
1.672
1.657
1.657
1.676
1.662
1.628
1.628
1.642
1.642
1.623
1.628
1.657
1.662
1.637
1.637
1.667
1.686
1.672
1.657
1.667
1.676
1.657
1.647
1.676
1.711
1.73
1.745
1.779
1.828
1.848
1.852
1.891
1.955
1.999
2.028
2.058
2.097
2.102
2.043
1.994
1.945
1.862
1.755
1.647
1.584
1.544
1.496
1.471
1.5
1.544
1.569
1.588
1.628
1.672
1.672
1.647
1.642
1.652
1.632
1.608
1.608
1.632
1.642
1.618
1.623
1.647
1.662
1.652
1.642
1.657
1.672
1.647
1.632
1.657
1.676
1.676
1.667
1.686
1.711
1.701
1.667
1.672
1.686
1.676
1.657
1.647
1.667
1.672
1.647
1.647
1.672
1.686
1.676
1.672
1.686
1.701
1.672
1.647
1.662
1.681
1.681
1.672
1.686
1.716
1.711
1.691
1.696
1.711
1.711
1.691
1.686
1.706
1.716
1.691
1.691
1.716
1.725
1.711
1.701
1.711
1.725
1.701
1.691
1.711
1.735
1.73
1.72
1.73
1.76
1.755
1.73
1.74
1.764
1.76
1.735
1.725
1.74
1.745
1.716
1.716
1.735
1.75
1.745
1.74
1.76
1.779
1.755
1.735
1.755
1.764
1.75
1.735
1.74
1.769
1.76
1.735
1.74
1.755
1.75
1.73
1.72
1.735
1.735
1.701
1.701
1.72
1.73
1.716
1.706
1.72
1.73
1.701
1.676
1.686
1.706
1.696
1.676
1.681
1.696
1.681
1.647
1.647
1.662
1.662
1.652
1.647
1.667
1.672
1.637
1.628
1.637
1.642
1.623
1.613
1.632
1.652
1.632
1.623
1.642
1.662
1.657
1.642
1.652
1.672
1.657
1.623
1.628
1.647
1.647
1.637
1.632
1.657
1.667
1.642
1.642
1.662
1.672
1.662
1.642
1.657
1.667
1.642
1.618
1.632
1.647
1.642
1.632
1.642
1.667
1.657
1.632
1.637
1.652
1.647
1.632
1.628
1.652
1.662
1.642
1.637
1.657
1.667
1.657
1.647
1.662
1.681
1.662
1.647
1.662
1.681
1.676
1.652
1.652
1.667
1.657
1.623
1.628
1.647
1.647
1.632
1.637
1.662
1.676
1.657
1.657
1.676
1.691
1.676
1.662
1.667
1.672
1.642
1.623
1.637
1.652
1.647
1.637
1.657
1.686
1.686
1.657
1.657
1.676
1.676
1.662
1.657
1.676
1.681
1.652
1.642
1.662
1.672
1.657
1.647
1.662
1.681
1.662
1.647
1.662
1.676
1.676
1.662
1.662
1.681
1.667
1.642
1.642
1.667
1.672
1.652
1.652
1.672
1.681
1.657
1.652
1.672
1.681
1.667
1.652
1.672
1.691
1.667
1.642
1.657
1.672
1.657
1.637
1.637
1.662
1.657
1.637
1.652
1.676
1.681
1.672
1.672
1.696
1.711
1.681
1.676
1.696
1.701
1.686
1.672
1.686
1.706
1.686
1.667
1.676
1.696
1.701
1.691
1.701
1.725
1.716
1.691
1.696
1.716
1.716
1.696
1.686
1.696
1.701
1.672
1.662
1.686
1.696
1.691
1.681
1.696
1.711
1.691
1.667
1.681
1.691
1.681
1.652
1.647
1.662
1.652
1.618
1.623
1.642
1.647
1.637
1.637
1.667
1.681
1.657
1.647
1.662
1.672
1.652
1.637
1.642
1.652
1.628
1.608
1.623
1.642
1.642
1.628
1.637
1.667
1.672
1.662
1.691
1.745
1.784
1.804
1.823
1.872
1.911
1.921
1.955
2.014
2.058
2.067
2.067
2.077
2.058
1.984
1.887
1.813
1.74
1.647
1.564
1.52
1.515
1.5
1.481
1.505
1.549
1.574
1.579
1.593
1.623
1.628
1.603
1.593
1.618
1.637
1.637
1.637
1.657
1.676
1.657
1.637
1.647
1.662
1.657
1.647
1.657
1.691
1.691
1.662
1.662
1.676
1.676
1.657
1.647
1.657
1.667
1.642
1.647
1.676
1.691
1.681
1.667
1.681
1.696
1.667
1.647
1.662
1.681
1.676
1.662
1.672
1.706
1.706
1.681
1.686
1.706
1.706
1.686
1.681
1.701
1.711
1.676
1.676
1.696
1.711
1.696
1.686
1.701
1.72
1.701
1.681
1.696
1.716
1.716
1.706
1.716
1.745
1.745
1.72
1.725
1.745
1.745
1.73
1.72
1.735
1.745
1.72
1.716
1.74
1.75
1.745
1.73
1.74
1.76
1.735
1.716
1.73
1.755
1.75
1.745
1.755
1.789
1.794
1.769
1.774
1.789
1.784
1.76
1.74
1.75
1.745
1.716
1.706
1.735
1.75
1.745
1.735
1.75
1.769
1.745
1.716
1.72
1.73
1.72
1.701
1.696
1.711
1.706
1.672
1.672
1.686
1.686
1.672
1.662
1.676
1.676
1.642
1.632
1.657
1.662
1.647
1.632
1.647
1.667
1.647
1.628
1.642
1.662
1.647
1.628
1.632
1.657
1.647
1.618
1.618
1.637
1.647
1.642
1.647
1.667
1.681
1.652
1.642
1.662
1.672
1.657
1.642
1.652
1.667
1.642
1.623
1.637
1.662
1.662
1.647
1.652
1.672
1.667
1.642
1.647
1.667
1.667
1.657
1.647
1.667
1.672
1.637
1.628
1.647
1.662
1.657
1.647
1.667
1.686
1.662
1.642
1.647
1.662
1.652
1.637
1.642
1.672
1.676
1.657
1.667
1.691
1.691
1.667
1.657
1.676
1.686
1.657
1.647
1.667
1.676
1.672
1.667
1.676
1.696
1.676
1.652
1.667
1.681
1.672
1.657
1.652
1.672
1.662
1.632
1.642
1.667
1.667
1.652
1.652
1.676
1.691
1.667
1.662
1.686
1.701
1.686
1.672
1.681
1.691
1.667
1.637
1.647
1.667
1.657
1.642
1.652
1.676
1.676
1.642
1.642
1.657
1.657
1.642
1.637
1.667
1.681
1.662
1.657
1.681
1.696
1.691
1.676
1.686
1.696
1.672
1.647
1.662
1.681
1.681
1.672
1.681
1.711
1.72
1.701
1.706
1.725
1.73
1.716
1.706
1.725
1.73
1.701
1.686
1.706
1.716
1.706
1.691
1.696
1.716
1.696
1.672
1.681
1.691
1.681
1.657
1.652
1.672
1.662
1.628
1.628
1.657
1.667
1.652
1.647
1.667
1.681
1.652
1.647
1.667
1.681
1.676
1.667
1.672
1.686
1.657
1.628
1.628
1.637
1.628
1.613
1.628
1.662
1.667
1.652
1.662
1.686
1.686
1.672
1.667
1.686
1.701
1.686
1.686
1.72
1.75
1.76
1.769
1.813
1.867
1.891
1.916
1.975
2.023
2.043
2.038
2.033
2.033
1.984
1.882
1.799
1.725
1.647
1.569
1.51
1.496
1.496
1.471
1.486
1.535
1.584
1.608
1.623
1.657
1.696
1.691
1.676
1.691
1.701
1.686
1.652
1.642
1.647
1.637
1.603
1.603
1.628
1.642
1.637
1.642
1.672
1.686
1.662
1.657
1.681
1.696
1.691
1.676
1.686
1.701
1.676
1.652
1.657
1.676
1.672
1.662
1.667
1.691
1.696
1.676
1.686
1.711
1.716
1.696
1.681
1.696
1.711
1.686
1.672
1.696
1.706
1.696
1.686
1.696
1.72
1.701
1.681
1.696
1.725
1.725
1.716
1.725
1.75
1.745
1.711
1.706
1.725
1.73
1.716
1.711
1.73
1.745
1.725
1.716
1.735
1.75
1.745
1.73
1.74
1.76
1.745
1.725
1.74
1.76
1.76
1.745
1.75
1.779
1.789
1.764
1.764
1.784
1.784
1.764
1.75
1.76
1.769
1.745
1.735
1.764
1.784
1.774
1.764
1.769
1.784
1.764
1.735
1.74
1.75
1.745
1.73
1.74
1.769
1.76
1.72
1.711
1.72
1.711
1.691
1.676
1.691
1.701
1.676
1.676
1.701
1.716
1.706
1.686
1.681
1.691
1.657
1.628
1.628
1.637
1.632
1.618
1.628
1.657
1.662
1.637
1.642
1.667
1.672
1.657
1.647
1.667
1.672
1.642
1.628
1.647
1.662
1.652
1.637
1.647
1.676
1.662
1.637
1.642
1.662
1.652
1.628
1.628
1.647
1.647
1.618
1.618
1.642
1.657
1.647
1.642
1.662
1.681
1.657
1.647
1.667
1.681
1.667
1.647
1.652
1.667
1.652
1.628
1.637
1.662
1.657
1.642
1.642
1.667
1.667
1.637
1.642
1.667
1.676
1.662
1.657
1.672
1.681
1.647
1.632
1.657
1.672
1.672
1.667
1.681
1.706
1.691
1.672
1.681
1.691
1.681
1.657
1.657
1.676
1.676
1.652
1.652
1.672
1.672
1.657
1.652
1.667
1.681
1.657
1.647
1.672
1.686
1.676
1.662
1.672
1.686
1.662
1.632
1.642
1.662
1.662
1.652
1.657
1.681
1.681
1.652
1.652
1.672
1.672
1.662
1.652
1.672
1.691
1.672
1.667
1.686
1.696
1.686
1.672
1.686
1.711
1.686
1.657
1.662
1.686
1.686
1.672
1.667
1.686
1.676
1.647
1.642
1.662
1.662
1.652
1.642
1.667
1.686
1.672
1.667
1.691
1.706
1.701
1.691
1.701
1.725
1.711
1.686
1.696
1.711
1.706
1.696
1.701
1.72
1.725
1.706
1.716
1.745
1.75
1.73
1.716
1.725
1.73
1.691
1.667
1.672
1.676
1.662
1.647
1.657
1.686
1.672
1.652
1.662
1.686
1.681
1.667
1.662
1.676
1.672
1.637
1.637
1.657
1.667
1.652
1.647
1.667
1.676
1.647
1.632
1.647
1.662
1.647
1.632
1.637
1.657
1.647
1.632
1.647
1.676
1.681
1.681
1.701
1.74
1.755
1.74
1.755
1.799
1.838
1.867
1.901
1.975
2.043
2.058
2.072
2.092
2.082
2.028
1.95
1.887
1.813
1.701
1.593
1.54
1.52
1.5
1.481
1.496
1.544
1.579
1.584
1.618
1.662
1.686
1.672
1.657
1.667
1.672
1.632
1.618
1.632
1.652
1.652
1.637
1.652
1.676
1.662
1.637
1.642
1.662
1.667
1.652
1.652
1.676
1.681
1.652
1.657
1.681
1.681
1.667
1.657
1.667
1.676
1.647
1.632
1.652
1.672
1.672
1.657
1.672
1.701
1.696
1.676
1.686
1.706
1.701
1.686
1.686
1.711
1.716
1.691
1.691
1.716
1.725
1.711
1.701
1.716
1.725
1.696
1.676
1.696
1.711
1.696
1.686
1.701
1.725
1.72
1.696
1.706
1.725
1.725
1.711
1.711
1.735
1.735
1.706
1.711
1.735
1.745
1.735
1.725
1.74
1.755
1.73
1.716
1.74
1.755
1.745
1.735
1.755
1.784
1.774
1.75
1.76
1.774
1.769
1.75
1.75
1.764
1.755
1.72
1.716
1.745
1.76
1.75
1.75
1.769
1.784
1.76
1.74
1.755
1.76
1.74
1.716
1.716
1.725
1.711
1.681
1.686
1.701
1.696
1.676
1.676
1.696
1.701
1.667
1.662
1.681
1.676
1.652
1.642
1.657
1.676
1.647
1.632
1.652
1.667
1.667
1.647
1.652
1.672
1.652
1.628
1.637
1.657
1.657
1.642
1.642
1.662
1.667
1.642
1.637
1.657
1.667
1.657
1.647
1.662
1.676
1.652
1.637
1.647
1.662
1.652
1.637
1.637
1.657
1.637
1.623
1.632
1.662
1.667
1.657
1.652
1.676
1.676
1.652
1.642
1.667
1.667
1.657
1.647
1.662
1.681
1.657
1.642
1.662
1.681
1.672
1.657
1.662
1.681
1.667
1.637
1.642
1.662
1.667
1.652
1.662
1.691
1.696
1.667
1.662
1.681
1.686
1.672
1.647
1.657
1.676
1.657
1.647
1.667
1.686
1.672
1.657
1.662
1.686
1.672
1.642
1.652
1.672
1.667
1.657
1.662
1.686
1.686
1.657
1.652
1.676
1.681
1.672
1.662
1.681
1.696
1.667
1.652
1.667
1.676
1.672
1.657
1.662
1.691
1.676
1.652
1.657
1.676
1.676
1.662
1.662
1.681
1.686
1.667
1.667
1.696
1.706
1.686
1.676
1.696
1.711
1.691
1.672
1.686
1.696
1.681
1.662
1.672
1.696
1.686
1.662
1.676
1.706
1.711
1.701
1.696
1.72
1.725
1.696
1.691
1.711
1.725
1.72
1.72
1.74
1.755
1.725
1.701
1.706
1.711
1.686
1.657
1.652
1.662
1.647
1.618
1.628
1.657
1.662
1.647
1.642
1.662
1.662
1.632
1.628
1.652
1.667
1.662
1.652
1.676
1.691
1.667
1.647
1.662
1.676
1.667
1.652
1.657
1.681
1.672
1.642
1.647
1.667
1.662
1.637
1.632
1.652
1.662
1.642
1.657
1.706
1.75
1.764
1.784
1.833
1.882
1.891
1.911
1.97
2.023
2.048
2.053
2.067
2.077
2.038
1.96
1.896
1.818
1.73
1.632
1.569
1.544
1.52
1.481
1.481
1.515
1.549
1.569
1.588
1.628
1.662
1.647
1.637
1.657
1.672
1.657
1.642
1.647
1.667
1.652
1.628
1.637
1.662
1.667
1.652
1.652
1.676
1.681
1.657
1.657
1.676
1.676
1.657
1.647
1.672
1.696
1.681
1.667
1.681
1.696
1.691
1.667
1.667
1.681
1.662
1.632
1.642
1.662
1.667
1.657
1.657
1.681
1.681
1.652
1.647
1.672
1.681
1.676
1.676
1.696
1.72
1.696
1.681
1.696
1.711
1.701
1.686
1.696
1.72
1.706
1.681
1.691
1.716
1.72
1.706
1.706
1.735
1.745
1.725
1.72
1.74
1.745
1.73
1.716
1.725
1.745
1.725
1.716
1.735
1.76
1.755
1.745
1.755
1.769
1.755
1.73
1.74
1.764
1.76
1.745
1.74
1.76
1.76
1.73
1.72
1.745
1.76
1.745
1.735
1.75
1.769
1.745
1.725
1.735
1.745
1.73
1.706
1.716
1.74
1.73
1.706
1.711
1.73
1.725
1.701
1.686
1.696
1.686
1.657
1.647
1.672
1.686
1.681
1.676
1.691
1.701
1.667
1.637
1.642
1.647
1.637
1.618
1.623
1.652
1.647
1.623
1.628
1.647
1.652
1.637
1.637
1.662
1.667
1.642
1.632
1.652
1.667
1.652
1.637
1.652
1.667
1.647
1.628
1.642
1.662
1.652
1.637
1.642
1.662
1.647
1.618
1.628
1.657
1.657
1.642
1.637
1.652
1.652
1.618
1.608
1.628
1.637
1.632
1.628
1.652
1.676
1.652
1.632
1.642
1.652
1.637
1.618
1.623
1.647
1.642
1.628
1.637
1.657
1.657
1.642
1.637
1.657
1.662
1.632
1.628
1.657
1.672
1.657
1.642
1.652
1.667
1.647
1.632
1.647
1.667
1.667
1.657
1.667
1.696
1.691
1.667
1.672
1.696
1.696
1.676
1.667
1.686
1.691
1.657
1.642
1.657
1.667
1.657
1.647
1.662
1.676
1.647
1.623
1.637
1.652
1.647
1.637
1.647
1.672
1.662
1.628
1.632
1.652
1.657
1.637
1.637
1.662
1.672
1.647
1.642
1.667
1.681
1.672
1.662
1.676
1.686
1.667
1.647
1.662
1.681
1.672
1.647
1.657
1.686
1.686
1.667
1.681
1.711
1.711
1.701
1.696
1.72
1.725
1.686
1.676
1.696
1.706
1.701
1.696
1.711
1.725
1.701
1.686
1.701
1.72
1.711
1.691
1.686
1.706
1.696
1.662
1.657
1.667
1.662
1.642
1.632
1.647
1.657
1.628
1.623
1.652
1.667
1.657
1.642
1.662
1.681
1.662
1.642
1.657
1.672
1.662
1.642
1.637
1.657
1.647
1.618
1.623
1.642
1.647
1.637
1.632
1.652
1.657
1.628
1.623
1.642
1.657
1.647
1.652
1.681
1.716
1.72
1.725
1.764
1.808
1.838
1.862
1.916
1.994
2.033
2.038
2.063
2.092
2.077
2.028
1.965
1.901
1.818
1.691
1.603
1.559
1.53
1.5
1.491
1.52
1.559
1.564
1.574
1.613
1.647
1.647
1.628
1.632
1.652
1.647
1.623
1.628
1.657
1.667
1.652
1.642
1.657
1.657
1.628
1.618
1.637
1.647
1.637
1.632
1.652
1.676
1.662
1.642
1.657
1.676
1.672
1.657
1.652
1.672
1.662
1.632
1.632
1.652
1.662
1.652
1.657
1.686
1.701
1.676
1.662
1.676
1.686
1.676
1.667
1.686
1.711
1.691
1.672
1.691
1.706
1.696
1.672
1.676
1.701
1.696
1.676
1.691
1.73
1.735
1.72
1.711
1.725
1.725
1.691
1.676
1.691
1.696
1.691
1.681
1.701
1.725
1.716
1.701
1.716
1.735
1.735
1.725
1.735
1.769
1.764
1.74
1.745
1.764
1.769
1.755
1.745
1.764
1.769
1.735
1.725
1.735
1.745
1.73
1.72
1.735
1.755
1.74
1.73
1.75
1.769
1.764
1.75
1.75
1.769
1.755
1.716
1.716
1.735
1.73
1.711
1.691
1.706
1.706
1.676
1.672
1.691
1.701
1.691
1.681
1.696
1.711
1.686
1.662
1.667
1.676
1.662
1.642
1.637
1.657
1.647
1.618
1.618
1.642
1.647
1.632
1.628
1.642
1.652
1.623
1.618
1.637
1.652
1.647
1.647
1.662
1.676
1.657
1.628
1.637
1.647
1.637
1.613
1.618
1.637
1.632
1.608
1.618
1.642
1.647
1.623
1.608
1.623
1.637
1.613
1.608
1.632
1.647
1.637
1.623
1.632
1.647
1.623
1.608
1.628
1.652
1.652
1.642
1.647
1.672
1.672
1.637
1.642
1.662
1.667
1.652
1.647
1.672
1.681
1.652
1.637
1.652
1.657
1.642
1.628
1.642
1.672
1.657
1.637
1.647
1.672
1.667
1.652
1.657
1.676
1.672
1.642
1.642
1.667
1.676
1.667
1.657
1.676
1.681
1.647
1.632
1.647
1.652
1.632
1.613
1.623
1.642
1.628
1.613
1.632
1.647
1.642
1.632
1.647
1.676
1.676
1.652
1.652
1.681
1.686
1.672
1.667
1.686
1.701
1.672
1.657
1.676
1.691
1.686
1.672
1.686
1.706
1.686
1.662
1.672
1.686
1.686
1.672
1.681
1.706
1.706
1.686
1.691
1.711
1.711
1.696
1.691
1.706
1.716
1.686
1.676
1.691
1.701
1.691
1.676
1.681
1.686
1.657
1.628
1.632
1.652
1.647
1.632
1.642
1.672
1.676
1.652
1.652
1.672
1.672
1.647
1.632
1.642
1.647
1.618
1.608
1.632
1.647
1.642
1.628
1.642
1.662
1.647
1.623
1.637
1.657
1.657
1.637
1.642
1.667
1.662
1.637
1.637
1.662
1.672
1.667
1.676
1.716
1.75
1.735
1.745
1.789
1.833
1.862
1.891
1.95
2.014
2.028
2.023
2.038
2.033
1.989
1.911
1.833
1.769
1.686
1.584
1.535
1.525
1.515
1.5
1.51
1.554
1.593
1.593
1.603
1.637
1.657
1.652
1.642
1.657
1.676
1.662
1.637
1.657
1.676
1.672
1.657
1.657
1.676
1.672
1.647
1.642
1.662
1.667
1.652
1.647
1.672
1.681
1.662
1.647
1.672
1.691
1.686
1.667
1.676
1.691
1.672
1.647
1.657
1.676
1.676
1.667
1.676
1.706
1.706
1.676
1.676
1.701
1.706
1.691
1.681
1.701
1.711
1.681
1.667
1.686
1.706
1.701
1.691
1.706
1.73
1.72
1.701
1.711
1.73
1.73
1.716
1.725
1.755
1.76
1.73
1.73
1.75
1.755
1.735
1.72
1.735
1.745
1.72
1.716
1.74
1.755
1.745
1.735
1.745
1.769
1.76
1.745
1.76
1.779
1.774
1.755
1.755
1.774
1.774
1.745
1.75
1.774
1.779
1.764
1.755
1.769
1.774
1.735
1.716
1.73
1.74
1.735
1.73
1.75
1.779
1.764
1.745
1.755
1.774
1.764
1.735
1.72
1.73
1.716
1.681
1.676
1.691
1.696
1.676
1.662
1.676
1.681
1.652
1.642
1.667
1.681
1.676
1.662
1.672
1.696
1.676
1.647
1.652
1.667
1.667
1.647
1.652
1.676
1.672
1.637
1.632
1.647
1.647
1.632
1.628
1.647
1.657
1.632
1.618
1.637
1.652
1.642
1.628
1.637
1.657
1.637
1.618
1.628
1.647
1.647
1.637
1.642
1.662
1.662
1.628
1.623
1.647
1.652
1.637
1.632
1.657
1.676
1.652
1.642
1.657
1.662
1.647
1.632
1.637
1.662
1.652
1.637
1.657
1.681
1.686
1.667
1.667
1.686
1.681
1.652
1.647
1.672
1.691
1.686
1.676
1.701
1.711
1.676
1.652
1.657
1.667
1.647
1.632
1.642
1.667
1.652
1.642
1.657
1.681
1.681
1.662
1.657
1.676
1.676
1.642
1.642
1.662
1.672
1.657
1.652
1.672
1.686
1.662
1.647
1.667
1.681
1.672
1.657
1.672
1.696
1.686
1.667
1.672
1.691
1.681
1.662
1.657
1.672
1.667
1.632
1.632
1.662
1.681
1.676
1.676
1.696
1.706
1.681
1.657
1.672
1.676
1.667
1.652
1.662
1.691
1.686
1.676
1.696
1.725
1.725
1.716
1.711
1.735
1.73
1.701
1.696
1.716
1.72
1.711
1.696
1.716
1.73
1.706
1.691
1.706
1.716
1.706
1.691
1.701
1.72
1.701
1.672
1.672
1.686
1.681
1.662
1.657
1.676
1.676
1.642
1.637
1.657
1.672
1.662
1.652
1.672
1.681
1.652
1.632
1.647
1.662
1.652
1.637
1.652
1.676
1.662
1.637
1.647
1.667
1.667
1.647
1.642
1.672
1.676
1.647
1.647
1.667
1.676
1.667
1.667
1.701
1.735
1.74
1.75
1.799
1.852
1.877
1.901
1.955
2.019
2.053
2.063
2.092
2.107
2.082
2.019
1.945
1.877
1.779
1.657
1.574
1.54
1.51
1.486
1.481
1.52
1.564
1.584
1.608
1.652
1.676
1.667
1.642
1.647
1.667
1.647
1.618
1.628
1.657
1.662
1.647
1.647
1.676
1.672
1.637
1.632
1.652
1.667
1.657
1.647
1.662
1.672
1.647
1.632
1.647
1.662
1.657
1.647
1.662
1.686
1.672
1.647
1.652
1.676
1.676
1.667
1.667
1.696
1.701
1.672
1.672
1.696
1.706
1.691
1.676
1.696
1.711
1.686
1.672
1.691
1.706
1.696
1.681
1.696
1.716
1.701
1.676
1.686
1.706
1.706
1.696
1.711
1.74
1.745
1.716
1.711
1.725
1.735
1.725
1.716
1.73
1.745
1.72
1.706
1.72
1.73
1.725
1.711
1.716
1.745
1.735
1.72
1.74
1.769
1.774
1.76
1.76
1.784
1.784
1.75
1.745
1.764
1.764
1.75
1.735
1.75
1.764
1.74
1.725
1.745
1.764
1.755
1.74
1.75
1.769
1.755
1.725
1.725
1.74
1.735
1.716
1.706
1.725
1.725
1.701
1.696
1.72
1.72
1.706
1.686
1.691
1.701
1.672
1.647
1.662
1.672
1.662
1.642
1.642
1.657
1.647
1.623
1.632
1.657
1.662
1.652
1.652
1.672
1.672
1.637
1.628
1.637
1.642
1.628
1.618
1.637
1.652
1.632
1.618
1.637
1.652
1.647
1.637
1.647
1.672
1.657
1.628
1.637
1.662
1.662
1.647
1.647
1.672
1.686
1.657
1.652
1.672
1.681
1.662
1.647
1.662
1.676
1.652
1.632
1.647
1.667
1.657
1.647
1.652
1.676
1.667
1.637
1.647
1.667
1.667
1.652
1.652
1.667
1.667
1.632
1.623
1.642
1.652
1.642
1.632
1.652
1.676
1.657
1.647
1.672
1.686
1.681
1.667
1.667
1.686
1.672
1.642
1.642
1.662
1.662
1.647
1.652
1.676
1.691
1.672
1.672
1.696
1.701
1.681
1.662
1.676
1.686
1.652
1.637
1.652
1.676
1.676
1.662
1.676
1.701
1.686
1.657
1.662
1.681
1.676
1.662
1.662
1.686
1.691
1.657
1.652
1.672
1.676
1.662
1.647
1.662
1.676
1.647
1.632
1.652
1.676
1.672
1.667
1.676
1.706
1.696
1.672
1.681
1.706
1.706
1.691
1.681
1.701
1.696
1.662
1.657
1.686
1.701
1.701
1.696
1.72
1.745
1.735
1.72
1.735
1.74
1.725
1.706
1.706
1.725
1.716
1.691
1.691
1.711
1.706
1.686
1.676
1.696
1.701
1.672
1.662
1.676
1.681
1.667
1.652
1.662
1.676
1.652
1.632
1.652
1.672
1.667
1.647
1.652
1.672
1.662
1.637
1.642
1.667
1.672
1.662
1.662
1.681
1.686
1.652
1.637
1.652
1.657
1.642
1.628
1.637
1.662
1.642
1.628
1.652
1.681
1.686
1.691
1.716
1.764
1.784
1.789
1.828
1.887
1.935
1.975
2.023
2.092
2.116
2.092
2.072
2.053
2.004
1.911
1.808
1.73
1.667
1.579
1.515
1.51
1.515
1.52
1.52
1.549
1.598
1.618
1.618
1.637
1.667
1.672
1.652
1.642
1.662
1.662
1.628
1.623
1.647
1.662
1.652
1.637
1.652
1.667
1.642
1.623
1.637
1.652
1.652
1.637
1.642
1.672
1.667
1.637
1.647
1.672
1.676
1.667
1.667
1.691
1.701
1.672
1.662
1.681
1.691
1.676
1.667
1.681
1.701
1.681
1.662
1.676
1.696
1.696
1.676
1.672
1.691
1.681
1.657
1.667
1.686
1.691
1.676
1.681
1.711
1.73
1.706
1.701
1.72
1.73
1.72
1.706
1.72
1.74
1.72
1.701
1.72
1.74
1.74
1.725
1.73
1.75
1.74
1.711
1.711
1.73
1.74
1.725
1.73
1.755
1.774
1.75
1.745
1.769
1.779
1.769
1.76
1.769
1.789
1.764
1.74
1.75
1.764
1.76
1.74
1.745
1.769
1.764
1.73
1.73
1.75
1.75
1.735
1.735
1.755
1.764
1.735
1.73
1.745
1.755
1.735
1.72
1.725
1.735
1.706
1.676
1.681
1.691
1.681
1.657
1.662
1.686
1.686
1.657
1.662
1.686
1.686
1.662
1.647
1.657
1.652
1.618
1.613
1.637
1.652
1.647
1.642
1.662
1.676
1.652
1.632
1.647
1.667
1.657
1.637
1.642
1.667
1.667
1.637
1.637
1.657
1.657
1.637
1.632
1.647
1.657
1.632
1.628
1.652
1.662
1.652
1.642
1.652
1.667
1.642
1.618
1.632
1.657
1.652
1.642
1.647
1.672
1.667
1.642
1.652
1.676
1.686
1.672
1.662
1.676
1.686
1.652
1.632
1.647
1.657
1.642
1.628
1.642
1.672
1.657
1.637
1.652
1.667
1.662
1.652
1.657
1.681
1.672
1.642
1.642
1.662
1.667
1.647
1.637
1.652
1.662
1.637
1.637
1.667
1.686
1.676
1.667
1.676
1.691
1.662
1.632
1.642
1.667
1.667
1.657
1.667
1.696
1.691
1.662
1.662
1.676
1.676
1.657
1.647
1.667
1.672
1.642
1.637
1.662
1.681
1.676
1.672
1.686
1.711
1.686
1.662
1.667
1.676
1.667
1.652
1.657
1.686
1.691
1.667
1.672
1.691
1.686
1.667
1.657
1.667
1.672
1.642
1.632
1.652
1.662
1.657
1.647
1.662
1.686
1.672
1.657
1.672
1.691
1.691
1.681
1.691
1.72
1.716
1.681
1.681
1.701
1.706
1.686
1.686
1.711
1.73
1.711
1.706
1.73
1.745
1.73
1.711
1.711
1.725
1.701
1.676
1.696
1.72
1.716
1.701
1.696
1.711
1.691
1.657
1.647
1.662
1.667
1.662
1.662
1.686
1.701
1.667
1.652
1.662
1.662
1.642
1.628
1.637
1.662
1.647
1.637
1.652
1.676
1.667
1.647
1.647
1.662
1.657
1.628
1.632
1.657
1.662
1.652
1.652
1.676
1.681
1.652
1.637
1.652
1.667
1.662
1.667
1.701
1.75
1.764
1.774
1.833
1.896
1.94
1.97
2.019
2.077
2.097
2.077
2.072
2.063
2.014
1.931
1.828
1.75
1.672
1.574
1.51
1.5
1.505
1.5
1.51
1.544
1.593
1.603
1.613
1.642
1.672
1.672
1.647
1.647
1.667
1.657
1.628
1.628
1.647
1.652
1.632
1.623
1.647
1.657
1.632
1.623
1.642
1.662
1.657
1.647
1.667
1.691
1.672
1.652
1.667
1.686
1.676
1.657
1.657
1.676
1.676
1.647
1.652
1.681
1.691
1.681
1.681
1.711
1.72
1.696
1.676
1.691
1.696
1.681
1.662
1.676
1.691
1.672
1.652
1.672
1.696
1.696
1.681
1.681
1.706
1.701
1.676
1.686
1.716
1.725
1.716
1.716
1.74
1.755
1.725
1.711
1.72
1.735
1.725
1.711
1.72
1.745
1.73
1.711
1.725
1.745
1.74
1.72
1.72
1.74
1.735
1.711
1.716
1.745
1.76
1.75
1.75
1.774
1.789
1.76
1.745
1.76
1.769
1.76
1.74
1.755
1.779
1.76
1.735
1.745
1.769
1.764
1.75
1.745
1.764
1.755
1.716
1.711
1.725
1.725
1.706
1.696
1.711
1.72
1.691
1.676
1.691
1.701
1.691
1.676
1.681
1.696
1.676
1.652
1.662
1.681
1.676
1.652
1.647
1.662
1.657
1.623
1.618
1.637
1.642
1.628
1.623
1.647
1.662
1.637
1.623
1.637
1.647
1.637
1.628
1.637
1.662
1.642
1.623
1.632
1.652
1.647
1.637
1.637
1.652
1.652
1.623
1.623
1.642
1.647
1.628
1.613
1.632
1.647
1.618
1.603
1.618
1.637
1.637
1.632
1.652
1.676
1.672
1.652
1.662
1.676
1.667
1.637
1.632
1.652
1.652
1.628
1.628
1.657
1.672
1.662
1.662
1.686
1.701
1.672
1.652
1.662
1.672
1.652
1.632
1.637
1.652
1.632
1.613
1.632
1.662
1.667
1.657
1.662
1.681
1.676
1.637
1.628
1.642
1.642
1.637
1.642
1.672
1.691
1.676
1.667
1.681
1.691
1.667
1.637
1.637
1.647
1.628
1.608
1.623
1.657
1.662
1.657
1.662
1.686
1.686
1.657
1.657
1.672
1.676
1.657
1.652
1.667
1.681
1.652
1.637
1.657
1.672
1.667
1.652
1.662
1.681
1.672
1.647
1.662
1.686
1.681
1.657
1.652
1.672
1.667
1.637
1.632
1.657
1.667
1.662
1.657
1.686
1.706
1.686
1.676
1.701
1.72
1.711
1.691
1.696
1.716
1.701
1.676
1.686
1.706
1.706
1.691
1.686
1.711
1.711
1.681
1.676
1.691
1.696
1.681
1.667
1.686
1.691
1.662
1.642
1.657
1.667
1.657
1.637
1.647
1.672
1.657
1.637
1.652
1.676
1.672
1.657
1.647
1.667
1.662
1.628
1.623
1.642
1.647
1.637
1.632
1.652
1.672
1.647
1.632
1.647
1.652
1.637
1.618
1.628
1.652
1.642
1.628
1.647
1.681
1.696
1.706
1.725
1.764
1.779
1.764
1.784
1.833
1.877
1.911
1.945
2.004
2.048
2.033
2.014
1.999
1.96
1.882
1.789
1.711
1.657
1.579
1.51
1.486
1.496
1.496
1.496
1.515
1.559
1.588
1.588
1.608
1.642
1.652
1.642
1.637
1.657
1.672
1.642
1.623
1.642
1.662
1.662
1.652
1.667
1.691
1.676
1.652
1.657
1.672
1.662
1.637
1.632
1.657
1.662
1.637
1.642
1.676
1.691
1.676
1.672
1.681
1.691
1.662
1.642
1.652
1.672
1.667
1.662
1.672
1.696
1.681
1.657
1.667
1.686
1.686
1.667
1.667
1.696
1.706
1.681
1.676
1.701
1.711
1.701
1.696
1.711
1.725
1.701
1.686
1.701
1.72
1.716
1.701
1.711
1.735
1.72
1.696
1.711
1.735
1.74
1.725
1.73
1.75
1.76
1.735
1.73
1.755
1.76
1.75
1.735
1.745
1.76
1.74
1.72
1.735
1.75
1.745
1.735
1.745
1.769
1.76
1.73
1.74
1.764
1.76
1.745
1.74
1.764
1.769
1.75
1.755
1.779
1.789
1.764
1.745
1.745
1.75
1.716
1.691
1.701
1.716
1.716
1.706
1.72
1.74
1.72
1.686
1.686
1.701
1.696
1.676
1.667
1.681
1.681
1.647
1.642
1.662
1.672
1.657
1.647
1.667
1.686
1.662
1.642
1.652
1.657
1.642
1.618
1.623
1.642
1.628
1.598
1.608
1.628
1.632
1.618
1.618
1.642
1.652
1.628
1.628
1.652
1.662
1.652
1.637
1.647
1.662
1.637
1.618
1.632
1.647
1.642
1.628
1.632
1.652
1.652
1.632
1.652
1.686
1.691
1.676
1.672
1.686
1.681
1.642
1.623
1.637
1.637
1.623
1.613
1.628
1.647
1.623
1.603
1.613
1.628
1.628
1.618
1.632
1.662
1.657
1.632
1.632
1.652
1.652
1.637
1.637
1.662
1.672
1.652
1.662
1.691
1.701
1.691
1.672
1.676
1.686
1.657
1.637
1.647
1.662
1.652
1.637
1.652
1.676
1.672
1.647
1.657
1.681
1.676
1.662
1.657
1.676
1.681
1.657
1.652
1.676
1.691
1.676
1.662
1.672
1.681
1.652
1.628
1.637
1.652
1.652
1.642
1.657
1.681
1.672
1.642
1.647
1.667
1.667
1.647
1.642
1.667
1.676
1.647
1.642
1.667
1.676
1.667
1.657
1.672
1.686
1.662
1.642
1.667
1.691
1.686
1.676
1.681
1.701
1.691
1.657
1.657
1.676
1.676
1.662
1.662
1.686
1.696
1.662
1.652
1.672
1.681
1.667
1.657
1.672
1.701
1.686
1.681
1.701
1.716
1.716
1.711
1.73
1.755
1.745
1.716
1.72
1.735
1.725
1.696
1.676
1.686
1.686
1.657
1.652
1.676
1.686
1.672
1.662
1.672
1.681
1.647
1.628
1.642
1.662
1.652
1.642
1.652
1.676
1.672
1.642
1.642
1.662
1.662
1.642
1.637
1.662
1.672
1.642
1.632
1.652
1.667
1.657
1.637
1.647
1.657
1.632
1.618
1.632
1.657
1.657
1.647
1.667
1.706
1.716
1.711
1.735
1.789
1.823
1.843
1.877
1.945
1.999
2.014
2.038
2.077
2.082
2.048
1.999
1.955
1.891
1.784
1.681
1.618
1.574
1.53
1.496
1.496
1.525
1.535
1.53
1.564
1.613
1.637
1.642
1.647
1.676
1.681
1.647
1.628
1.642
1.652
1.637
1.623
1.642
1.672
1.657
1.642
1.667
1.686
1.681
1.662
1.657
1.672
1.647
1.613
1.613
1.637
1.642
1.632
1.637
1.672
1.686
1.667
1.662
1.686
1.696
1.676
1.657
1.662
1.676
1.652
1.637
1.657
1.676
1.676
1.667
1.676
1.696
1.686
1.657
1.657
1.681
1.686
1.676
1.681
1.706
1.72
1.696
1.696
1.716
1.73
1.716
1.701
1.711
1.725
1.696
1.676
1.691
1.716
1.72
1.711
1.725
1.755
1.755
1.725
1.73
1.745
1.735
1.711
1.706
1.73
1.745
1.72
1.72
1.745
1.764
1.755
1.745
1.755
1.774
1.755
1.735
1.745
1.764
1.755
1.74
1.745
1.769
1.764
1.74
1.745
1.764
1.764
1.74
1.73
1.745
1.745
1.716
1.706
1.73
1.74
1.73
1.72
1.735
1.745
1.716
1.681
1.691
1.706
1.696
1.681
1.691
1.711
1.711
1.686
1.691
1.701
1.691
1.662
1.647
1.652
1.652
1.618
1.603
1.623
1.637
1.632
1.623
1.637
1.657
1.637
1.623
1.637
1.657
1.652
1.642
1.647
1.672
1.667
1.632
1.632
1.642
1.642
1.628
1.618
1.642
1.652
1.628
1.623
1.647
1.667
1.657
1.647
1.662
1.676
1.662
1.637
1.647
1.662
1.652
1.628
1.632
1.657
1.647
1.623
1.623
1.652
1.657
1.647
1.647
1.662
1.672
1.647
1.637
1.657
1.667
1.657
1.642
1.647
1.662
1.632
1.613
1.623
1.647
1.647
1.637
1.642
1.672
1.676
1.652
1.652
1.672
1.667
1.642
1.637
1.657
1.667
1.642
1.632
1.657
1.667
1.657
1.647
1.662
1.686
1.667
1.642
1.652
1.667
1.657
1.642
1.647
1.672
1.662
1.632
1.632
1.652
1.657
1.642
1.637
1.662
1.676
1.647
1.642
1.657
1.672
1.657
1.642
1.652
1.672
1.652
1.637
1.657
1.681
1.681
1.667
1.672
1.686
1.681
1.647
1.647
1.672
1.676
1.662
1.662
1.681
1.691
1.662
1.642
1.657
1.667
1.662
1.647
1.662
1.681
1.657
1.637
1.657
1.676
1.672
1.657
1.667
1.691
1.691
1.662
1.667
1.686
1.691
1.672
1.662
1.686
1.706
1.681
1.681
1.706
1.72
1.716
1.706
1.72
1.74
1.725
1.706
1.711
1.73
1.725
1.706
1.696
1.711
1.686
1.647
1.642
1.662
1.662
1.652
1.647
1.667
1.672
1.637
1.623
1.642
1.657
1.647
1.637
1.657
1.681
1.667
1.647
1.662
1.676
1.667
1.647
1.647
1.667
1.667
1.642
1.642
1.657
1.652
1.632
1.628
1.642
1.647
1.618
1.608
1.632
1.657
1.662
1.662
1.686
1.725
1.73
1.73
1.764
1.804
1.828
1.852
1.901
1.979
2.033
2.048
2.077
2.107
2.097
2.043
1.984
1.931
1.852
1.73
1.637
1.588
1.549
1.51
1.481
1.496
1.525
1.53
1.535
1.584
1.637
1.662
1.662
1.672
1.691
1.681
1.642
1.628
1.642
1.637
1.623
1.613
1.637
1.657
1.632
1.628
1.647
1.662
1.652
1.637
1.647
1.667
1.652
1.628
1.642
1.662
1.662
1.652
1.657
1.686
1.686
1.662
1.667
1.686
1.691
1.667
1.657
1.676
1.686
1.662
1.647
1.672
1.686
1.681
1.667
1.672
1.691
1.672
1.652
1.662
1.686
1.686
1.676
1.681
1.711
1.706
1.667
1.667
1.691
1.701
1.691
1.691
1.716
1.74
1.72
1.716
1.73
1.74
1.725
1.706
1.716
1.73
1.72
1.696
1.711
1.73
1.735
1.72
1.725
1.75
1.75
1.725
1.735
1.76
1.764
1.75
1.74
1.76
1.774
1.745
1.73
1.75
1.769
1.764
1.755
1.769
1.789
1.769
1.74
1.745
1.755
1.75
1.73
1.73
1.75
1.75
1.716
1.716
1.74
1.74
1.725
1.711
1.725
1.73
1.701
1.686
1.701
1.711
1.691
1.667
1.667
1.686
1.672
1.647
1.657
1.681
1.681
1.667
1.667
1.686
1.676
1.637
1.632
1.652
1.657
1.642
1.637
1.652
1.672
1.642
1.637
1.652
1.662
1.652
1.637
1.642
1.657
1.632
1.608
1.613
1.632
1.628
1.613
1.613
1.642
1.637
1.613
1.618
1.642
1.647
1.637
1.637
1.662
1.676
1.652
1.642
1.657
1.667
1.652
1.637
1.642
1.657
1.637
1.613
1.628
1.652
1.652
1.642
1.647
1.672
1.667
1.637
1.637
1.662
1.667
1.647
1.632
1.652
1.672
1.647
1.637
1.657
1.667
1.652
1.632
1.647
1.667
1.652
1.628
1.632
1.657
1.662
1.647
1.652
1.672
1.667
1.632
1.628
1.652
1.652
1.637
1.632
1.652
1.672
1.647
1.637
1.657
1.676
1.672
1.662
1.667
1.686
1.667
1.632
1.637
1.657
1.652
1.632
1.637
1.662
1.667
1.642
1.642
1.662
1.667
1.657
1.652
1.676
1.696
1.662
1.647
1.662
1.676
1.662
1.642
1.647
1.667
1.657
1.637
1.652
1.676
1.672
1.647
1.647
1.672
1.667
1.637
1.632
1.657
1.667
1.662
1.657
1.676
1.686
1.662
1.647
1.662
1.676
1.667
1.657
1.667
1.691
1.676
1.657
1.667
1.686
1.676
1.667
1.667
1.696
1.701
1.686
1.696
1.725
1.74
1.725
1.711
1.72
1.725
1.691
1.672
1.686
1.701
1.696
1.691
1.706
1.725
1.706
1.667
1.657
1.667
1.652
1.632
1.628
1.652
1.657
1.632
1.632
1.652
1.657
1.647
1.637
1.657
1.672
1.647
1.632
1.647
1.657
1.642
1.623
1.623
1.647
1.632
1.613
1.632
1.662
1.662
1.647
1.647
1.672
1.672
1.642
1.642
1.662
1.672
1.662
1.662
1.691
1.725
1.72
1.725
1.764
1.808
1.838
1.862
1.911
1.975
2.009
2.019
2.048
2.072
2.053
2.004
1.94
1.882
1.794
1.676
1.598
1.559
1.525
1.491
1.471
1.496
1.53
1.53
1.544
1.588
1.623
1.628
1.628
1.647
1.676
1.667
1.642
1.652
1.676
1.672
1.652
1.647
1.662
1.652
1.613
1.613
1.632
1.642
1.632
1.628
1.652
1.672
1.657
1.642
1.657
1.667
1.662
1.647
1.657
1.681
1.672
1.652
1.667
1.686
1.686
1.667
1.662
1.681
1.681
1.647
1.642
1.667
1.676
1.662
1.657
1.676
1.696
1.672
1.662
1.686
1.706
1.701
1.691
1.701
1.725
1.716
1.696
1.706
1.725
1.725
1.706
1.701
1.72
1.72
1.686
1.686
1.711
1.72
1.706
1.696
1.72
1.74
1.72
1.711
1.73
1.755
1.755
1.745
1.764
1.784
1.764
1.73
1.73
1.74
1.74
1.72
1.725
1.755
1.76
1.73
1.73
1.755
1.76
1.745
1.73
1.745
1.76
1.735
1.725
1.75
1.769
1.76
1.74
1.745
1.764
1.75
1.72
1.725
1.745
1.74
1.72
1.716
1.73
1.73
1.691
1.676
1.691
1.696
1.681
1.672
1.691
1.706
1.676
1.652
1.657
1.672
1.667
1.652
1.657
1.672
1.662
1.637
1.647
1.662
1.657
1.637
1.632
1.652
1.657
1.628
1.623
1.647
1.652
1.637
1.623
1.632
1.642
1.618
1.603
1.628
1.647
1.642
1.628
1.637
1.662
1.647
1.618
1.618
1.632
1.628
1.618
1.623
1.647
1.652
1.632
1.632
1.652
1.662
1.642
1.632
1.642
1.662
1.637
1.628
1.652
1.676
1.672
1.657
1.667
1.686
1.672
1.642
1.647
1.667
1.657
1.637
1.628
1.647
1.652
1.623
1.618
1.637
1.652
1.642
1.637
1.657
1.672
1.652
1.637
1.657
1.676
1.667
1.652
1.662
1.681
1.667
1.642
1.647
1.667
1.672
1.657
1.657
1.676
1.681
1.647
1.642
1.662
1.667
1.652
1.642
1.662
1.681
1.662
1.642
1.657
1.667
1.652
1.632
1.637
1.667
1.657
1.632
1.642
1.667
1.672
1.662
1.652
1.672
1.672
1.647
1.637
1.657
1.662
1.647
1.637
1.657
1.676
1.657
1.642
1.657
1.676
1.672
1.657
1.662
1.686
1.681
1.657
1.667
1.686
1.686
1.676
1.686
1.716
1.72
1.691
1.686
1.706
1.716
1.696
1.681
1.696
1.716
1.696
1.681
1.701
1.716
1.706
1.686
1.686
1.701
1.672
1.637
1.632
1.652
1.647
1.632
1.628
1.652
1.652
1.623
1.623
1.652
1.662
1.652
1.637
1.647
1.667
1.642
1.628
1.642
1.657
1.652
1.632
1.637
1.657
1.642
1.613
1.618
1.632
1.632
1.623
1.623
1.647
1.652
1.628
1.632
1.667
1.691
1.691
1.696
1.73
1.764
1.755
1.755
1.799
1.852
1.887
1.916
1.965
2.023
2.043
2.028
2.023
2.009
1.96
1.877
1.799
1.74
1.672
1.584
1.53
1.52
1.51
1.496
1.496
1.53
1.569
1.569
1.579
1.613
1.642
1.647
1.637
1.642
1.667
1.652
1.623
1.623
1.647
1.647
1.632
1.632
1.652
1.662
1.637
1.632
1.652
1.657
1.637
1.628
1.647
1.672
1.657
1.647
1.667
1.686
1.686
1.676
1.686
1.711
1.701
1.667
1.667
1.691
1.696
1.681
1.672
1.691
1.691
1.667
1.662
1.691
1.701
1.686
1.672
1.686
1.701
1.676
1.652
1.657
1.672
1.667
1.652
1.667
1.696
1.696
1.676
1.691
1.72
1.73
1.72
1.716
1.74
1.75
1.72
1.706
1.725
1.725
1.706
1.691
1.711
1.74
1.725
1.716
1.74
1.764
1.764
1.75
1.755
1.774
1.764
1.735
1.74
1.76
1.764
1.755
1.755
1.779
1.784
1.755
1.745
1.769
1.784
1.779
1.764
1.764
1.774
1.745
1.725
1.73
1.745
1.735
1.72
1.73
1.755
1.745
1.72
1.725
1.745
1.745
1.725
1.716
1.735
1.74
1.706
1.686
1.696
1.691
1.672
1.652
1.662
1.676
1.652
1.637
1.652
1.672
1.667
1.647
1.652
1.672
1.657
1.618
1.618
1.637
1.642
1.632
1.632
1.662
1.672
1.647
1.642
1.667
1.667
1.652
1.637
1.647
1.662
1.637
1.618
1.632
1.647
1.637
1.628
1.632
1.657
1.652
1.628
1.637
1.662
1.662
1.642
1.628
1.642
1.647
1.623
1.618
1.642
1.652
1.642
1.632
1.642
1.657
1.637
1.618
1.632
1.647
1.637
1.623
1.632
1.662
1.662
1.642
1.657
1.681
1.681
1.667
1.662
1.676
1.672
1.637
1.623
1.642
1.657
1.647
1.642
1.657
1.676
1.652
1.628
1.642
1.657
1.652
1.642
1.657
1.686
1.681
1.657
1.662
1.686
1.681
1.657
1.647
1.667
1.676
1.647
1.642
1.667
1.676
1.667
1.657
1.667
1.681
1.657
1.642
1.657
1.672
1.667
1.652
1.662
1.686
1.676
1.647
1.647
1.667
1.667
1.642
1.637
1.662
1.676
1.657
1.652
1.672
1.681
1.676
1.662
1.672
1.681
1.662
1.637
1.652
1.672
1.667
1.657
1.662
1.691
1.681
1.652
1.662
1.686
1.691
1.681
1.676
1.696
1.706
1.676
1.667
1.691
1.706
1.691
1.681
1.701
1.72
1.706
1.686
1.706
1.72
1.711
1.691
1.696
1.716
1.701
1.667
1.667
1.691
1.701
1.691
1.691
1.711
1.72
1.681
1.667
1.672
1.672
1.652
1.632
1.637
1.652
1.632
1.623
1.647
1.676
1.676
1.657
1.662
1.676
1.667
1.632
1.632
1.652
1.652
1.642
1.642
1.667
1.676
1.652
1.642
1.662
1.662
1.652
1.637
1.642
1.662
1.642
1.623
1.647
1.676
1.686
1.691
1.725
1.779
1.799
1.808
1.848
1.911
1.96
1.994
2.033
2.077
2.092
2.053
2.009
1.97
1.916
1.823
1.725
1.657
1.608
1.54
1.491
1.496
1.52
1.53
1.54
1.569
1.618
1.642
1.632
1.647
1.672
1.676
1.657
1.652
1.672
1.681
1.652
1.642
1.662
1.672
1.652
1.632
1.642
1.667
1.652
1.632
1.647
1.667
1.662
1.652
1.657
1.681
1.672
1.642
1.642
1.667
1.672
1.662
1.657
1.676
1.686
1.652
1.642
1.667
1.676
1.672
1.662
1.676
1.701
1.686
1.667
1.686
1.706
1.696
1.676
1.676
1.701
1.696
1.672
1.676
1.701
1.706
1.691
1.686
1.716
1.725
1.701
1.691
1.716
1.73
1.72
1.716
1.735
1.755
1.735
1.711
1.72
1.745
1.745
1.73
1.73
1.755
1.76
1.735
1.745
1.769
1.769
1.755
1.745
1.76
1.764
1.73
1.716
1.735
1.75
1.74
1.735
1.755
1.784
1.769
1.755
1.774
1.784
1.774
1.75
1.75
1.769
1.76
1.725
1.725
1.745
1.75
1.735
1.73
1.75
1.764
1.735
1.725
1.745
1.755
1.74
1.725
1.73
1.74
1.711
1.686
1.691
1.701
1.691
1.667
1.667
1.691
1.686
1.657
1.657
1.676
1.676
1.662
1.652
1.667
1.667
1.632
1.618
1.637
1.647
1.637
1.628
1.642
1.662
1.642
1.618
1.628
1.642
1.637
1.628
1.637
1.672
1.672
1.652
1.652
1.672
1.667
1.647
1.637
1.652
1.657
1.628
1.618
1.637
1.657
1.652
1.642
1.657
1.676
1.657
1.632
1.647
1.672
1.667
1.652
1.652
1.676
1.676
1.652
1.652
1.667
1.662
1.642
1.632
1.652
1.667
1.642
1.632
1.652
1.672
1.662
1.652
1.657
1.676
1.657
1.632
1.642
1.662
1.657
1.637
1.642
1.662
1.662
1.637
1.637
1.662
1.667
1.652
1.647
1.667
1.676
1.647
1.642
1.667
1.686
1.672
1.652
1.662
1.681
1.667
1.642
1.657
1.672
1.672
1.662
1.667
1.691
1.691
1.662
1.667
1.691
1.686
1.662
1.652
1.667
1.676
1.647
1.637
1.652
1.667
1.657
1.642
1.657
1.681
1.667
1.647
1.657
1.672
1.672
1.657
1.662
1.691
1.686
1.652
1.652
1.672
1.681
1.672
1.667
1.691
1.706
1.681
1.672
1.696
1.711
1.701
1.686
1.701
1.72
1.701
1.681
1.701
1.73
1.725
1.711
1.711
1.735
1.735
1.706
1.706
1.73
1.73
1.716
1.696
1.706
1.706
1.672
1.657
1.667
1.676
1.662
1.647
1.657
1.676
1.657
1.632
1.637
1.652
1.647
1.637
1.642
1.667
1.672
1.642
1.647
1.672
1.676
1.657
1.642
1.657
1.667
1.637
1.632
1.657
1.672
1.662
1.652
1.667
1.686
1.667
1.637
1.642
1.662
1.667
1.662
1.681
1.72
1.74
1.735
1.764
1.823
1.862
1.891
1.935
2.009
2.067
2.077
2.082
2.097
2.077
2.023
1.95
1.877
1.804
1.696
1.598
1.544
1.525
1.5
1.486
1.5
1.544
1.574
1.579
1.603
1.647
1.672
1.662
1.652
1.667
1.667
1.637
1.623
1.642
1.657
1.652
1.642
1.657
1.672
1.652
1.628
1.632
1.652
1.657
1.647
1.657
1.686
1.696
1.672
1.676
1.691
1.686
1.657
1.642
1.657
1.667
1.642
1.628
1.652
1.667
1.662
1.652
1.667
1.691
1.681
1.662
1.676
1.696
1.686
1.672
1.667
1.686
1.681
1.652
1.657
1.686
1.706
1.701
1.701
1.725
1.735
1.706
1.696
1.706
