Num1
1.642
1.657
1.657
1.662
1.672
1.691
1.686
1.672
1.672
1.681
1.667
1.647
1.647
1.657
1.657
1.632
1.623
1.637
1.642
1.642
1.647
1.667
1.681
1.672
1.667
1.676
1.676
1.652
1.632
1.632
1.647
1.647
1.642
1.662
1.681
1.686
1.686
1.696
1.711
1.711
1.691
1.696
1.716
1.716
1.711
1.706
1.716
1.72
1.706
1.696
1.711
1.72
1.72
1.716
1.716
1.735
1.735
1.725
1.735
1.74
1.735
1.725
1.72
1.725
1.725
1.711
1.72
1.735
1.745
1.74
1.745
1.76
1.769
1.755
1.735
1.725
1.725
1.716
1.696
1.691
1.696
1.681
1.662
1.672
1.686
1.681
1.667
1.667
1.676
1.676
1.657
1.647
1.652
1.642
1.618
1.598
1.593
1.593
1.569
1.564
1.579
1.584
1.579
1.579
1.593
1.613
1.623
1.628
1.657
1.676
1.672
1.652
1.642
1.642
1.632
1.603
1.598
1.613
1.618
1.613
1.618
1.642
1.667
1.662
1.657
1.662
1.657
1.642
1.623
1.618
1.623
1.613
1.598
1.603
1.623
1.628
1.628
1.632
1.647
1.642
1.623
1.603
1.608
1.608
1.608
1.613
1.637
1.657
1.642
1.642
1.657
1.672
1.662
1.652
1.647
1.657
1.652
1.642
1.652
1.667
1.667
1.657
1.647
1.647
1.642
1.628
1.632
1.652
1.657
1.657
1.652
1.662
1.667
1.652
1.642
1.647
1.652
1.642
1.642
1.647
1.657
1.647
1.637
1.642
1.647
1.647
1.642
1.647
1.667
1.676
1.662
1.662
1.667
1.672
1.672
1.667
1.681
1.686
1.672
1.662
1.672
1.681
1.672
1.662
1.662
1.672
1.667
1.667
1.686
1.701
1.701
1.696
1.701
1.72
1.72
1.706
1.701
1.711
1.711
1.696
1.686
1.696
1.701
1.672
1.647
1.652
1.657
1.657
1.657
1.676
1.716
1.73
1.735
1.75
1.76
1.745
1.73
1.716
1.711
1.706
1.696
1.701
1.73
1.74
1.735
1.72
1.725
1.735
1.73
1.73
1.75
1.76
1.76
1.755
1.755
1.764
1.75
1.73
1.73
1.74
1.75
1.745
1.75
1.764
1.755
1.735
1.725
1.725
1.716
1.701
1.691
1.706
1.716
1.706
1.701
1.711
1.716
1.706
1.691
1.696
1.711
1.706
1.706
1.716
1.725
1.72
1.706
1.701
1.706
1.696
1.672
1.667
1.676
1.686
1.691
1.691
1.716
1.735
1.73
1.725
1.73
1.73
1.716
1.706
1.706
1.725
1.735
1.76
1.799
1.848
1.882
1.916
1.96
2.019
2.058
2.067
2.072
2.082
2.067
2.019
1.96
1.896
1.833
1.745
1.676
1.642
1.618
1.603
1.593
1.603
1.623
1.632
1.632
1.652
1.676
1.681
1.681
1.691
1.706
1.706
1.696
1.701
1.716
1.72
1.711
1.706
1.716
1.725
1.706
1.696
1.701
1.711
1.701
1.686
1.681
1.691
1.686
1.681
1.701
1.72
1.72
1.711
1.701
1.706
1.701
1.681
1.676
1.691
1.701
1.701
1.706
1.725
1.74
1.73
1.725
1.735
1.73
1.72
1.716
1.725
1.745
1.745
1.735
1.74
1.745
1.745
1.735
1.735
1.74
1.735
1.72
1.725
1.745
1.75
1.745
1.74
1.74
1.745
1.725
1.725
1.74
1.75
1.75
1.755
1.769
1.789
1.789
1.789
1.799
1.813
1.813
1.804
1.799
1.808
1.799
1.779
1.774
1.784
1.784
1.789
1.794
1.818
1.828
1.818
1.818
1.833
1.838
1.818
1.804
1.808
1.823
1.818
1.808
1.808
1.813
1.808
1.799
1.799
1.804
1.794
1.774
1.774
1.779
1.779
1.76
1.74
1.74
1.735
1.711
1.701
1.711
1.716
1.716
1.711
1.711
1.72
1.711
1.701
1.696
1.701
1.696
1.686
1.691
1.706
1.706
1.691
1.691
1.696
1.686
1.672
1.667
1.672
1.676
1.667
1.662
1.676
1.681
1.667
1.657
1.657
1.667
1.667
1.662
1.667
1.672
1.662
1.647
1.642
1.652
1.647
1.632
1.637
1.662
1.672
1.672
1.672
1.681
1.696
1.681
1.672
1.676
1.681
1.681
1.681
1.696
1.706
1.691
1.676
1.676
1.681
1.672
1.657
1.647
1.652
1.647
1.632
1.642
1.657
1.657
1.652
1.652
1.667
1.681
1.667
1.662
1.672
1.681
1.676
1.672
1.676
1.681
1.667
1.652
1.662
1.676
1.676
1.667
1.667
1.681
1.686
1.672
1.676
1.686
1.686
1.672
1.662
1.672
1.672
1.652
1.642
1.647
1.647
1.637
1.628
1.632
1.652
1.647
1.642
1.652
1.662
1.652
1.642
1.647
1.662
1.667
1.652
1.657
1.672
1.672
1.657
1.647
1.652
1.652
1.632
1.632
1.647
1.657
1.652
1.647
1.657
1.676
1.676
1.676
1.691
1.701
1.696
1.676
1.672
1.676
1.672
1.642
1.642
1.657
1.672
1.676
1.686
1.701
1.711
1.691
1.681
1.691
1.691
1.681
1.676
1.691
1.716
1.716
1.706
1.711
1.72
1.711
1.691
1.676
1.676
1.672
1.647
1.642
1.657
1.662
1.662
1.667
1.681
1.691
1.676
1.676
1.681
1.676
1.662
1.652
1.647
1.652
1.642
1.632
1.647
1.672
1.681
1.676
1.672
1.681
1.681
1.667
1.662
1.672
1.667
1.662
1.657
1.667
1.672
1.652
1.642
1.657
1.676
1.686
1.696
1.72
1.76
1.789
1.823
1.867
1.921
1.95
1.975
2.004
2.023
2.009
1.96
1.911
1.862
1.799
1.73
1.672
1.642
1.618
1.593
1.588
1.603
1.623
1.628
1.637
1.657
1.681
1.672
1.657
1.667
1.681
1.676
1.662
1.657
1.657
1.647
1.628
1.637
1.662
1.676
1.676
1.676
1.691
1.706
1.691
1.686
1.691
1.686
1.672
1.657
1.657
1.672
1.662
1.652
1.662
1.676
1.681
1.681
1.686
1.706
1.706
1.691
1.691
1.706
1.701
1.681
1.676
1.681
1.696
1.686
1.681
1.696
1.701
1.691
1.676
1.686
1.701
1.706
1.706
1.72
1.735
1.73
1.716
1.706
1.706
1.701
1.676
1.676
1.696
1.711
1.716
1.725
1.755
1.769
1.76
1.76
1.764
1.764
1.745
1.725
1.725
1.735
1.725
1.716
1.725
1.745
1.76
1.769
1.784
1.799
1.804
1.789
1.789
1.808
1.808
1.794
1.784
1.784
1.779
1.764
1.76
1.774
1.789
1.789
1.789
1.799
1.818
1.808
1.789
1.789
1.784
1.769
1.755
1.75
1.755
1.745
1.72
1.716
1.73
1.72
1.701
1.681
1.681
1.686
1.672
1.667
1.681
1.686
1.676
1.667
1.676
1.696
1.681
1.662
1.662
1.676
1.676
1.667
1.672
1.686
1.686
1.676
1.676
1.681
1.672
1.647
1.628
1.637
1.647
1.632
1.628
1.632
1.642
1.642
1.647
1.662
1.686
1.676
1.657
1.662
1.676
1.681
1.672
1.672
1.681
1.681
1.657
1.652
1.662
1.657
1.652
1.642
1.652
1.667
1.662
1.681
1.706
1.716
1.696
1.676
1.676
1.686
1.672
1.662
1.672
1.691
1.696
1.691
1.691
1.701
1.696
1.672
1.672
1.686
1.691
1.691
1.691
1.706
1.706
1.681
1.667
1.662
1.657
1.642
1.632
1.647
1.672
1.672
1.667
1.681
1.701
1.701
1.691
1.686
1.691
1.681
1.652
1.647
1.652
1.662
1.657
1.662
1.676
1.691
1.681
1.686
1.706
1.72
1.706
1.686
1.676
1.681
1.672
1.662
1.667
1.667
1.652
1.637
1.637
1.647
1.652
1.642
1.652
1.676
1.696
1.696
1.696
1.711
1.711
1.691
1.672
1.672
1.667
1.662
1.662
1.676
1.691
1.681
1.667
1.672
1.676
1.676
1.667
1.676
1.696
1.706
1.701
1.711
1.73
1.73
1.716
1.711
1.716
1.716
1.701
1.691
1.701
1.706
1.696
1.691
1.696
1.711
1.701
1.696
1.706
1.711
1.701
1.691
1.681
1.686
1.676
1.652
1.642
1.657
1.662
1.652
1.652
1.667
1.676
1.667
1.662
1.672
1.676
1.667
1.652
1.657
1.676
1.667
1.657
1.667
1.676
1.672
1.657
1.652
1.657
1.657
1.637
1.637
1.652
1.662
1.662
1.672
1.691
1.716
1.72
1.74
1.779
1.818
1.848
1.877
1.921
1.965
1.984
1.989
1.984
1.96
1.906
1.838
1.769
1.711
1.647
1.584
1.549
1.544
1.544
1.544
1.544
1.559
1.579
1.579
1.598
1.623
1.642
1.642
1.642
1.657
1.667
1.657
1.642
1.642
1.652
1.657
1.652
1.652
1.667
1.662
1.647
1.647
1.662
1.662
1.642
1.637
1.647
1.652
1.637
1.628
1.628
1.628
1.613
1.608
1.623
1.637
1.632
1.632
1.647
1.657
1.642
1.628
1.628
1.647
1.652
1.652
1.672
1.701
1.72
1.716
1.711
1.711
1.696
1.662
1.647
1.662
1.681
1.701
1.72
1.74
1.755
1.73
1.701
1.691
1.681
1.662
1.652
1.657
1.686
1.706
1.711
1.72
1.74
1.73
1.716
1.701
1.716
1.725
1.716
1.716
1.735
1.75
1.74
1.73
1.725
1.73
1.72
1.72
1.74
1.769
1.779
1.774
1.774
1.789
1.784
1.769
1.774
1.784
1.779
1.76
1.75
1.76
1.764
1.745
1.735
1.745
1.75
1.75
1.74
1.745
1.75
1.73
1.711
1.711
1.716
1.711
1.701
1.706
1.72
1.711
1.686
1.676
1.681
1.681
1.672
1.667
1.672
1.672
1.657
1.652
1.662
1.667
1.652
1.637
1.642
1.652
1.642
1.628
1.632
1.632
1.618
1.613
1.628
1.652
1.657
1.647
1.647
1.662
1.662
1.652
1.647
1.657
1.662
1.647
1.642
1.652
1.652
1.637
1.618
1.618
1.628
1.618
1.618
1.637
1.652
1.652
1.647
1.652
1.657
1.647
1.637
1.642
1.657
1.662
1.657
1.652
1.662
1.662
1.632
1.618
1.623
1.628
1.628
1.628
1.637
1.657
1.657
1.657
1.662
1.667
1.662
1.657
1.652
1.662
1.652
1.637
1.652
1.672
1.686
1.681
1.672
1.672
1.667
1.642
1.632
1.642
1.647
1.647
1.642
1.662
1.681
1.686
1.681
1.691
1.691
1.676
1.662
1.652
1.662
1.657
1.642
1.642
1.652
1.647
1.632
1.632
1.657
1.672
1.667
1.662
1.672
1.676
1.667
1.657
1.652
1.647
1.628
1.618
1.628
1.647
1.652
1.652
1.662
1.681
1.681
1.662
1.662
1.667
1.667
1.657
1.652
1.667
1.676
1.667
1.672
1.686
1.701
1.701
1.691
1.691
1.696
1.676
1.662
1.667
1.676
1.676
1.672
1.676
1.696
1.696
1.681
1.681
1.691
1.691
1.686
1.691
1.706
1.716
1.711
1.711
1.72
1.72
1.706
1.686
1.691
1.696
1.681
1.667
1.667
1.672
1.662
1.652
1.642
1.647
1.647
1.637
1.652
1.672
1.686
1.686
1.686
1.691
1.691
1.662
1.642
1.637
1.628
1.618
1.613
1.628
1.647
1.647
1.647
1.667
1.686
1.686
1.672
1.662
1.672
1.672
1.667
1.681
1.711
1.735
1.75
1.779
1.828
1.872
1.896
1.926
1.97
2.004
2.009
1.989
1.975
1.95
1.896
1.838
1.784
1.735
1.672
1.618
1.584
1.584
1.574
1.559
1.569
1.593
1.613
1.623
1.632
1.652
1.662
1.647
1.642
1.652
1.662
1.657
1.657
1.657
1.657
1.642
1.637
1.637
1.637
1.623
1.613
1.628
1.647
1.652
1.637
1.632
1.637
1.642
1.642
1.657
1.681
1.701
1.696
1.696
1.706
1.706
1.686
1.662
1.652
1.642
1.628
1.623
1.642
1.672
1.681
1.681
1.696
1.711
1.711
1.691
1.686
1.696
1.691
1.676
1.672
1.686
1.691
1.672
1.667
1.676
1.681
1.676
1.672
1.681
1.696
1.691
1.686
1.701
1.72
1.716
1.706
1.706
1.725
1.725
1.716
1.72
1.725
1.725
1.706
1.696
1.711
1.725
1.716
1.716
1.735
1.745
1.755
1.76
1.774
1.789
1.779
1.769
1.779
1.789
1.779
1.764
1.755
1.76
1.755
1.74
1.745
1.76
1.76
1.755
1.755
1.76
1.76
1.73
1.72
1.73
1.73
1.716
1.706
1.711
1.72
1.716
1.711
1.716
1.711
1.686
1.667
1.662
1.672
1.667
1.642
1.637
1.642
1.642
1.642
1.642
1.657
1.667
1.657
1.662
1.676
1.681
1.667
1.647
1.642
1.642
1.628
1.608
1.618
1.632
1.632
1.632
1.637
1.652
1.637
1.618
1.613
1.623
1.628
1.628
1.628
1.647
1.657
1.647
1.647
1.662
1.657
1.632
1.613
1.608
1.618
1.613
1.618
1.642
1.662
1.667
1.672
1.681
1.696
1.686
1.662
1.667
1.681
1.681
1.662
1.652
1.662
1.657
1.637
1.628
1.642
1.652
1.652
1.652
1.672
1.686
1.672
1.652
1.647
1.642
1.632
1.628
1.632
1.647
1.642
1.632
1.647
1.667
1.672
1.657
1.642
1.647
1.652
1.642
1.647
1.662
1.662
1.652
1.642
1.647
1.657
1.642
1.637
1.647
1.662
1.662
1.657
1.662
1.676
1.676
1.662
1.662
1.672
1.676
1.676
1.676
1.686
1.686
1.667
1.647
1.642
1.632
1.618
1.613
1.632
1.652
1.652
1.657
1.676
1.686
1.681
1.667
1.657
1.667
1.657
1.642
1.652
1.672
1.676
1.667
1.657
1.657
1.657
1.637
1.642
1.662
1.676
1.672
1.672
1.676
1.686
1.672
1.667
1.681
1.696
1.701
1.696
1.696
1.696
1.681
1.662
1.667
1.681
1.686
1.686
1.696
1.72
1.73
1.716
1.716
1.725
1.725
1.72
1.716
1.716
1.72
1.701
1.681
1.672
1.662
1.637
1.613
1.613
1.632
1.637
1.632
1.647
1.667
1.667
1.662
1.662
1.672
1.672
1.657
1.647
1.647
1.642
1.632
1.628
1.632
1.647
1.637
1.642
1.662
1.672
1.657
1.642
1.642
1.652
1.642
1.637
1.667
1.716
1.764
1.808
1.852
1.906
1.95
1.975
1.999
2.028
2.033
2.019
1.999
1.975
1.94
1.877
1.804
1.75
1.691
1.628
1.579
1.554
1.559
1.564
1.564
1.588
1.618
1.632
1.637
1.637
1.652
1.642
1.618
1.618
1.642
1.652
1.642
1.637
1.647
1.662
1.652
1.642
1.652
1.657
1.652
1.652
1.657
1.672
1.667
1.652
1.647
1.657
1.647
1.637
1.642
1.667
1.681
1.672
1.676
1.696
1.701
1.691
1.676
1.676
1.686
1.676
1.672
1.686
1.701
1.701
1.691
1.691
1.696
1.676
1.647
1.647
1.657
1.657
1.652
1.667
1.701
1.725
1.72
1.725
1.74
1.745
1.745
1.735
1.735
1.735
1.716
1.706
1.706
1.706
1.696
1.676
1.676
1.696
1.706
1.706
1.73
1.755
1.764
1.764
1.764
1.769
1.755
1.716
1.696
1.701
1.706
1.706
1.706
1.72
1.745
1.75
1.755
1.769
1.779
1.764
1.75
1.755
1.774
1.779
1.769
1.774
1.789
1.794
1.784
1.779
1.779
1.764
1.74
1.735
1.745
1.745
1.735
1.725
1.725
1.73
1.711
1.701
1.706
1.706
1.696
1.681
1.686
1.701
1.701
1.681
1.676
1.676
1.667
1.647
1.632
1.628
1.618
1.603
1.608
1.632
1.647
1.642
1.642
1.662
1.676
1.667
1.657
1.667
1.676
1.672
1.662
1.657
1.667
1.657
1.637
1.637
1.642
1.642
1.632
1.637
1.652
1.662
1.647
1.642
1.652
1.647
1.637
1.628
1.632
1.647
1.642
1.647
1.672
1.686
1.686
1.681
1.676
1.681
1.667
1.652
1.652
1.667
1.667
1.667
1.672
1.681
1.686
1.676
1.681
1.691
1.681
1.662
1.647
1.652
1.662
1.647
1.642
1.662
1.676
1.676
1.667
1.662
1.662
1.647
1.632
1.628
1.642
1.647
1.657
1.672
1.701
1.706
1.686
1.681
1.691
1.686
1.672
1.657
1.667
1.681
1.667
1.652
1.662
1.667
1.662
1.657
1.662
1.681
1.681
1.672
1.681
1.691
1.686
1.676
1.672
1.681
1.681
1.662
1.657
1.667
1.672
1.672
1.672
1.686
1.701
1.686
1.681
1.686
1.681
1.667
1.657
1.657
1.672
1.667
1.657
1.672
1.686
1.686
1.681
1.681
1.691
1.686
1.672
1.681
1.701
1.706
1.691
1.681
1.686
1.691
1.672
1.662
1.672
1.681
1.676
1.672
1.681
1.696
1.696
1.681
1.686
1.691
1.691
1.696
1.706
1.73
1.735
1.725
1.735
1.745
1.74
1.716
1.696
1.706
1.716
1.711
1.701
1.72
1.735
1.725
1.716
1.711
1.716
1.701
1.681
1.686
1.696
1.691
1.686
1.681
1.681
1.676
1.652
1.652
1.672
1.681
1.676
1.676
1.691
1.701
1.691
1.686
1.691
1.696
1.676
1.662
1.667
1.681
1.676
1.667
1.672
1.681
1.686
1.686
1.691
1.701
1.696
1.681
1.686
1.716
1.74
1.755
1.779
1.818
1.857
1.887
1.931
1.989
2.043
2.067
2.072
2.077
2.067
2.019
1.95
1.877
1.804
1.716
1.632
1.584
1.569
1.554
1.54
1.554
1.588
1.623
1.632
1.642
1.662
1.686
1.681
1.672
1.681
1.686
1.681
1.667
1.672
1.681
1.672
1.657
1.662
1.672
1.667
1.652
1.657
1.686
1.696
1.681
1.681
1.696
1.701
1.696
1.691
1.696
1.696
1.672
1.647
1.657
1.672
1.676
1.676
1.686
1.701
1.696
1.681
1.681
1.691
1.686
1.672
1.672
1.691
1.701
1.706
1.72
1.74
1.745
1.73
1.716
1.716
1.711
1.681
1.667
1.681
1.691
1.691
1.691
1.706
1.725
1.725
1.716
1.72
1.73
1.735
1.725
1.725
1.735
1.735
1.725
1.73
1.75
1.76
1.75
1.745
1.755
1.764
1.75
1.745
1.764
1.784
1.784
1.784
1.794
1.808
1.804
1.784
1.779
1.779
1.769
1.75
1.74
1.755
1.764
1.76
1.774
1.799
1.808
1.808
1.808
1.823
1.833
1.813
1.799
1.789
1.779
1.755
1.73
1.725
1.735
1.73
1.711
1.716
1.735
1.735
1.73
1.72
1.725
1.72
1.691
1.681
1.686
1.676
1.662
1.657
1.676
1.696
1.686
1.681
1.691
1.696
1.686
1.667
1.652
1.652
1.642
1.632
1.647
1.667
1.672
1.667
1.667
1.681
1.686
1.662
1.652
1.667
1.667
1.667
1.667
1.676
1.691
1.681
1.672
1.681
1.696
1.691
1.686
1.681
1.691
1.672
1.647
1.647
1.657
1.652
1.647
1.657
1.681
1.691
1.686
1.691
1.701
1.696
1.676
1.657
1.667
1.676
1.662
1.652
1.667
1.681
1.676
1.667
1.672
1.686
1.676
1.667
1.676
1.696
1.701
1.691
1.686
1.701
1.701
1.686
1.686
1.691
1.686
1.672
1.667
1.681
1.691
1.676
1.672
1.686
1.701
1.696
1.681
1.676
1.681
1.662
1.647
1.647
1.662
1.662
1.662
1.676
1.701
1.711
1.701
1.701
1.711
1.701
1.676
1.662
1.667
1.676
1.657
1.647
1.652
1.662
1.662
1.662
1.676
1.701
1.701
1.701
1.711
1.725
1.72
1.706
1.696
1.696
1.691
1.667
1.667
1.676
1.681
1.681
1.672
1.676
1.686
1.672
1.667
1.686
1.696
1.696
1.686
1.686
1.696
1.681
1.667
1.667
1.681
1.676
1.662
1.662
1.686
1.706
1.711
1.725
1.745
1.75
1.74
1.73
1.74
1.755
1.735
1.725
1.73
1.74
1.735
1.73
1.735
1.74
1.725
1.706
1.711
1.72
1.725
1.72
1.716
1.716
1.701
1.672
1.657
1.667
1.667
1.662
1.662
1.676
1.686
1.681
1.676
1.686
1.691
1.686
1.686
1.691
1.686
1.672
1.652
1.652
1.667
1.667
1.672
1.686
1.711
1.72
1.716
1.725
1.735
1.725
1.706
1.686
1.691
1.711
1.716
1.73
1.76
1.799
1.823
1.852
1.891
1.926
1.94
1.955
1.989
2.019
2.014
1.984
1.95
1.916
1.862
1.779
1.711
1.662
1.618
1.584
1.564
1.579
1.603
1.608
1.628
1.657
1.681
1.691
1.691
1.691
1.701
1.686
1.667
1.667
1.672
1.672
1.667
1.667
1.681
1.681
1.667
1.672
1.696
1.706
1.701
1.696
1.706
1.711
1.696
1.691
1.701
1.706
1.691
1.681
1.676
1.686
1.676
1.662
1.676
1.696
1.701
1.696
1.701
1.72
1.725
1.711
1.706
1.716
1.706
1.691
1.686
1.701
1.72
1.716
1.711
1.711
1.716
1.711
1.701
1.706
1.72
1.716
1.711
1.72
1.74
1.74
1.73
1.73
1.735
1.735
1.725
1.735
1.755
1.764
1.76
1.755
1.764
1.769
1.755
1.75
1.76
1.769
1.764
1.76
1.769
1.784
1.774
1.75
1.745
1.755
1.76
1.755
1.76
1.779
1.794
1.789
1.794
1.808
1.804
1.794
1.779
1.789
1.804
1.794
1.789
1.794
1.799
1.784
1.769
1.769
1.774
1.76
1.74
1.745
1.76
1.755
1.745
1.745
1.76
1.755
1.73
1.725
1.74
1.75
1.74
1.725
1.725
1.716
1.681
1.662
1.657
1.647
1.637
1.637
1.652
1.672
1.667
1.667
1.676
1.696
1.691
1.676
1.662
1.667
1.657
1.637
1.642
1.657
1.657
1.652
1.647
1.657
1.672
1.662
1.657
1.667
1.672
1.657
1.647
1.647
1.662
1.657
1.647
1.657
1.672
1.667
1.657
1.652
1.667
1.676
1.672
1.676
1.691
1.691
1.676
1.662
1.667
1.672
1.662
1.662
1.676
1.691
1.691
1.686
1.691
1.691
1.672
1.647
1.647
1.662
1.667
1.672
1.681
1.701
1.706
1.686
1.686
1.696
1.691
1.676
1.667
1.672
1.676
1.667
1.672
1.696
1.706
1.696
1.681
1.681
1.696
1.686
1.672
1.676
1.676
1.657
1.642
1.642
1.662
1.667
1.657
1.662
1.681
1.691
1.681
1.676
1.686
1.681
1.657
1.642
1.657
1.672
1.676
1.676
1.691
1.706
1.696
1.676
1.676
1.681
1.676
1.672
1.672
1.681
1.681
1.672
1.672
1.686
1.696
1.686
1.681
1.691
1.701
1.686
1.691
1.706
1.711
1.691
1.681
1.686
1.696
1.686
1.672
1.686
1.701
1.701
1.686
1.691
1.706
1.716
1.706
1.706
1.716
1.72
1.716
1.711
1.72
1.72
1.696
1.686
1.696
1.701
1.696
1.691
1.691
1.691
1.672
1.657
1.662
1.667
1.662
1.652
1.662
1.691
1.696
1.681
1.686
1.696
1.691
1.672
1.652
1.652
1.657
1.642
1.637
1.647
1.657
1.662
1.667
1.681
1.701
1.696
1.676
1.681
1.691
1.696
1.696
1.72
1.755
1.784
1.804
1.838
1.877
1.906
1.926
1.935
1.945
1.945
1.911
1.882
1.867
1.838
1.794
1.745
1.711
1.686
1.647
1.618
1.623
1.628
1.623
1.608
1.613
1.632
1.628
1.618
1.628
1.652
1.662
1.652
1.652
1.662
1.672
1.657
1.652
1.657
1.662
1.657
1.652
1.667
1.686
1.681
1.676
1.686
1.691
1.691
1.686
1.691
1.696
1.686
1.657
1.657
1.672
1.672
1.662
1.652
1.667
1.686
1.681
1.686
1.696
1.701
1.686
1.672
1.676
1.686
1.686
1.681
1.701
1.72
1.72
1.711
1.706
1.711
1.706
1.691
1.696
1.711
1.716
1.711
1.706
1.711
1.716
1.701
1.696
1.711
1.72
1.716
1.716
1.725
1.735
1.725
1.711
1.72
1.745
1.75
1.75
1.755
1.764
1.764
1.755
1.755
1.764
1.76
1.75
1.75
1.76
1.769
1.75
1.745
1.755
1.76
1.76
1.755
1.764
1.784
1.784
1.779
1.779
1.789
1.779
1.769
1.769
1.779
1.774
1.755
1.76
1.774
1.779
1.769
1.764
1.774
1.769
1.74
1.72
1.72
1.716
1.701
1.686
1.686
1.691
1.676
1.667
1.672
1.681
1.681
1.672
1.676
1.686
1.681
1.662
1.652
1.657
1.642
1.628
1.628
1.642
1.657
1.652
1.647
1.652
1.657
1.642
1.623
1.618
1.623
1.623
1.623
1.642
1.662
1.662
1.652
1.647
1.657
1.652
1.637
1.637
1.652
1.657
1.652
1.652
1.662
1.667
1.647
1.637
1.642
1.647
1.632
1.623
1.628
1.642
1.637
1.632
1.647
1.667
1.667
1.657
1.652
1.657
1.652
1.632
1.632
1.642
1.642
1.642
1.642
1.662
1.672
1.657
1.657
1.667
1.676
1.667
1.657
1.667
1.681
1.667
1.647
1.647
1.647
1.642
1.637
1.642
1.662
1.667
1.662
1.672
1.686
1.691
1.681
1.667
1.667
1.657
1.637
1.632
1.642
1.652
1.647
1.647
1.662
1.676
1.667
1.652
1.657
1.652
1.632
1.618
1.618
1.632
1.632
1.628
1.647
1.672
1.686
1.686
1.686
1.701
1.696
1.662
1.642
1.647
1.647
1.637
1.628
1.637
1.652
1.642
1.637
1.647
1.662
1.667
1.667
1.676
1.696
1.696
1.686
1.686
1.696
1.691
1.676
1.672
1.681
1.691
1.681
1.686
1.701
1.706
1.696
1.686
1.691
1.706
1.701
1.691
1.711
1.72
1.725
1.711
1.696
1.696
1.681
1.657
1.657
1.672
1.672
1.662
1.667
1.681
1.691
1.681
1.672
1.681
1.686
1.676
1.667
1.652
1.637
1.618
1.608
1.618
1.628
1.628
1.628
1.642
1.667
1.672
1.657
1.657
1.662
1.662
1.657
1.662
1.681
1.696
1.681
1.676
1.681
1.676
1.672
1.672
1.696
1.74
1.764
1.794
1.843
1.891
1.926
1.945
1.96
1.979
1.97
1.94
1.916
1.887
1.848
1.789
1.73
1.686
1.637
1.579
1.554
1.559
1.569
1.574
1.584
1.603
1.637
1.647
1.652
1.672
1.681
1.667
1.642
1.637
1.647
1.652
1.642
1.642
1.657
1.652
1.642
1.632
1.637
1.642
1.637
1.637
1.657
1.672
1.672
1.672
1.676
1.676
1.652
1.632
1.637
1.647
1.652
1.652
1.657
1.676
1.672
1.657
1.662
1.681
1.691
1.691
1.691
1.706
1.716
1.701
1.696
1.696
1.696
1.686
1.672
1.672
1.686
1.686
1.686
1.701
1.711
1.706
1.696
1.691
1.701
1.696
1.681
1.686
1.691
1.681
1.672
1.672
1.686
1.701
1.691
1.696
1.72
1.735
1.74
1.735
1.745
1.75
1.73
1.711
1.72
1.73
1.73
1.725
1.735
1.755
1.76
1.755
1.764
1.779
1.774
1.76
1.76
1.774
1.784
1.769
1.76
1.764
1.76
1.74
1.72
1.716
1.725
1.72
1.72
1.74
1.76
1.764
1.769
1.774
1.779
1.76
1.725
1.706
1.701
1.686
1.672
1.667
1.681
1.691
1.686
1.686
1.696
1.686
1.667
1.647
1.652
1.657
1.637
1.628
1.642
1.667
1.672
1.667
1.662
1.662
1.642
1.618
1.618
1.637
1.647
1.647
1.657
1.686
1.696
1.676
1.662
1.657
1.642
1.618
1.598
1.608
1.623
1.628
1.632
1.652
1.672
1.672
1.667
1.672
1.676
1.667
1.642
1.642
1.642
1.637
1.623
1.618
1.632
1.642
1.628
1.623
1.637
1.652
1.652
1.657
1.667
1.686
1.676
1.672
1.676
1.676
1.662
1.647
1.642
1.652
1.657
1.652
1.667
1.691
1.696
1.686
1.681
1.681
1.667
1.637
1.628
1.632
1.642
1.642
1.642
1.647
1.662
1.652
1.647
1.657
1.662
1.652
1.647
1.647
1.652
1.647
1.628
1.637
1.652
1.647
1.637
1.637
1.657
1.667
1.657
1.657
1.672
1.672
1.662
1.652
1.667
1.686
1.676
1.667
1.676
1.686
1.686
1.672
1.657
1.652
1.637
1.623
1.628
1.647
1.652
1.652
1.662
1.676
1.681
1.662
1.662
1.667
1.672
1.672
1.662
1.672
1.676
1.667
1.657
1.667
1.672
1.662
1.652
1.662
1.676
1.672
1.667
1.676
1.691
1.701
1.701
1.711
1.735
1.75
1.73
1.72
1.725
1.716
1.696
1.676
1.672
1.681
1.672
1.672
1.686
1.701
1.696
1.676
1.667
1.672
1.662
1.642
1.642
1.652
1.652
1.647
1.647
1.652
1.657
1.642
1.637
1.652
1.662
1.657
1.652
1.662
1.672
1.657
1.647
1.652
1.662
1.662
1.652
1.647
1.662
1.657
1.647
1.652
1.667
1.681
1.691
1.716
1.745
1.774
1.779
1.794
1.828
1.862
1.882
1.906
1.945
1.989
2.004
1.994
1.984
1.95
1.887
1.813
1.745
1.696
1.637
1.579
1.559
1.574
1.584
1.593
1.608
1.628
1.632
1.618
1.623
1.647
1.657
1.652
1.642
1.647
1.662
1.657
1.647
1.657
1.657
1.652
1.652
1.667
1.686
1.686
1.672
1.676
1.681
1.676
1.652
1.637
1.642
1.642
1.628
1.632
1.657
1.667
1.667
1.672
1.686
1.696
1.681
1.672
1.686
1.696
1.691
1.681
1.681
1.696
1.686
1.667
1.672
1.681
1.676
1.667
1.667
1.681
1.691
1.676
1.676
1.696
1.711
1.701
1.686
1.686
1.696
1.686
1.681
1.696
1.701
1.701
1.696
1.701
1.716
1.716
1.701
1.706
1.72
1.725
1.725
1.735
1.75
1.76
1.74
1.73
1.74
1.745
1.74
1.74
1.745
1.755
1.74
1.74
1.75
1.76
1.75
1.74
1.74
1.75
1.745
1.73
1.73
1.745
1.75
1.745
1.75
1.769
1.779
1.764
1.764
1.769
1.76
1.735
1.72
1.72
1.73
1.716
1.711
1.72
1.73
1.73
1.72
1.711
1.72
1.711
1.691
1.691
1.701
1.701
1.686
1.676
1.686
1.681
1.652
1.637
1.642
1.642
1.632
1.628
1.642
1.662
1.657
1.657
1.667
1.672
1.662
1.647
1.642
1.652
1.642
1.628
1.628
1.642
1.637
1.632
1.632
1.647
1.642
1.628
1.628
1.647
1.662
1.657
1.652
1.662
1.672
1.657
1.637
1.637
1.647
1.647
1.642
1.647
1.672
1.681
1.676
1.691
1.706
1.701
1.686
1.676
1.676
1.667
1.637
1.628
1.637
1.642
1.637
1.632
1.637
1.647
1.637
1.637
1.662
1.681
1.681
1.672
1.672
1.686
1.681
1.662
1.657
1.657
1.647
1.637
1.637
1.657
1.667
1.652
1.647
1.652
1.652
1.637
1.632
1.652
1.672
1.676
1.676
1.696
1.706
1.701
1.686
1.681
1.676
1.657
1.628
1.623
1.632
1.642
1.642
1.652
1.667
1.676
1.667
1.672
1.681
1.676
1.662
1.647
1.652
1.662
1.652
1.647
1.652
1.662
1.657
1.652
1.662
1.672
1.667
1.657
1.667
1.681
1.681
1.662
1.642
1.647
1.642
1.628
1.628
1.642
1.657
1.662
1.662
1.686
1.706
1.701
1.696
1.706
1.72
1.711
1.696
1.691
1.701
1.696
1.681
1.691
1.706
1.706
1.701
1.701
1.716
1.72
1.701
1.696
1.706
1.706
1.696
1.686
1.691
1.691
1.672
1.662
1.672
1.672
1.657
1.637
1.637
1.642
1.632
1.623
1.637
1.657
1.657
1.642
1.632
1.647
1.647
1.632
1.632
1.642
1.647
1.657
1.667
1.686
1.691
1.676
1.667
1.676
1.681
1.672
1.662
1.667
1.686
1.681
1.672
1.681
1.701
1.711
1.725
1.75
1.799
1.838
1.862
1.896
1.94
1.975
1.984
1.989
1.994
1.984
1.94
1.891
1.848
1.789
1.711
1.642
1.603
1.588
1.569
1.549
1.559
1.588
1.613
1.632
1.652
1.672
1.672
1.652
1.647
1.657
1.652
1.637
1.628
1.637
1.647
1.632
1.628
1.642
1.657
1.662
1.652
1.652
1.662
1.657
1.647
1.652
1.662
1.657
1.642
1.637
1.652
1.662
1.652
1.657
1.667
1.672
1.662
1.657
1.667
1.676
1.657
1.647
1.657
1.667
1.667
1.657
1.662
1.676
1.676
1.667
1.681
1.701
1.706
1.696
1.691
1.696
1.691
1.672
1.667
1.681
1.686
1.686
1.686
1.701
1.72
1.72
1.725
1.735
1.73
1.72
1.706
1.701
1.701
1.681
1.667
1.676
1.696
1.701
1.706
1.716
1.74
1.745
1.73
1.725
1.74
1.74
1.735
1.735
1.755
1.769
1.76
1.75
1.764
1.769
1.76
1.745
1.745
1.75
1.74
1.73
1.745
1.774
1.779
1.769
1.774
1.779
1.769
1.745
1.74
1.74
1.735
1.72
1.706
1.711
1.72
1.706
1.696
1.701
1.701
1.691
1.676
1.672
1.681
1.667
1.652
1.657
1.667
1.662
1.652
1.652
1.657
1.652
1.632
1.628
1.632
1.628
1.623
1.628
1.647
1.662
1.652
1.647
1.662
1.672
1.662
1.647
1.652
1.662
1.652
1.637
1.642
1.647
1.637
1.623
1.618
1.637
1.642
1.623
1.613
1.613
1.608
1.593
1.584
1.603
1.623
1.623
1.632
1.657
1.681
1.681
1.667
1.662
1.657
1.637
1.623
1.628
1.657
1.667
1.667
1.667
1.681
1.676
1.657
1.657
1.672
1.672
1.662
1.652
1.657
1.662
1.642
1.632
1.637
1.647
1.642
1.637
1.637
1.647
1.647
1.652
1.667
1.676
1.672
1.662
1.662
1.667
1.657
1.628
1.618
1.623
1.623
1.623
1.628
1.642
1.652
1.642
1.642
1.657
1.662
1.647
1.628
1.628
1.652
1.657
1.662
1.676
1.696
1.696
1.691
1.691
1.691
1.681
1.652
1.637
1.642
1.637
1.628
1.628
1.637
1.652
1.642
1.637
1.647
1.657
1.657
1.652
1.662
1.672
1.662
1.652
1.657
1.667
1.667
1.657
1.657
1.662
1.667
1.647
1.642
1.647
1.642
1.632
1.637
1.657
1.672
1.667
1.672
1.696
1.711
1.716
1.711
1.716
1.725
1.716
1.701
1.711
1.72
1.72
1.706
1.706
1.716
1.716
1.701
1.701
1.716
1.701
1.681
1.667
1.676
1.681
1.667
1.662
1.676
1.691
1.691
1.676
1.676
1.686
1.676
1.657
1.652
1.662
1.657
1.652
1.657
1.667
1.662
1.647
1.642
1.662
1.672
1.667
1.662
1.667
1.676
1.667
1.662
1.676
1.681
1.676
1.662
1.662
1.667
1.662
1.652
1.662
1.676
1.681
1.676
1.686
1.711
1.725
1.73
1.76
1.804
1.843
1.872
1.901
1.945
1.984
1.994
2.004
2.023
2.019
1.989
1.95
1.906
1.862
1.784
1.701
1.637
1.598
1.559
1.535
1.53
1.564
1.593
1.603
1.623
1.652
1.667
1.672
1.667
1.676
1.686
1.672
1.662
1.672
1.676
1.672
1.662
1.667
1.676
1.672
1.662
1.672
1.681
1.681
1.672
1.672
1.681
1.672
1.652
1.657
1.672
1.676
1.667
1.657
1.667
1.681
1.672
1.662
1.667
1.672
1.672
1.672
1.686
1.706
1.706
1.691
1.701
1.711
1.706
1.691
1.686
1.696
1.696
1.676
1.681
1.706
1.716
1.716
1.716
1.725
1.725
1.701
1.691
1.696
1.696
1.686
1.686
1.706
1.725
1.725
1.72
1.735
1.745
1.735
1.72
1.716
1.725
1.725
1.716
1.725
1.76
1.774
1.774
1.769
1.779
1.789
1.774
1.769
1.779
1.779
1.764
1.745
1.745
1.755
1.755
1.75
1.76
1.774
1.779
1.779
1.784
1.794
1.794
1.774
1.774
1.779
1.774
1.764
1.755
1.769
1.774
1.76
1.745
1.75
1.76
1.755
1.75
1.755
1.755
1.735
1.711
1.701
1.696
1.686
1.667
1.662
1.676
1.681
1.672
1.676
1.691
1.691
1.676
1.657
1.662
1.662
1.652
1.642
1.662
1.672
1.662
1.652
1.657
1.672
1.662
1.652
1.662
1.676
1.676
1.662
1.657
1.662
1.652
1.637
1.642
1.662
1.662
1.662
1.662
1.686
1.696
1.681
1.667
1.676
1.681
1.686
1.681
1.691
1.701
1.696
1.681
1.686
1.691
1.681
1.657
1.642
1.647
1.652
1.642
1.647
1.667
1.676
1.672
1.676
1.696
1.711
1.691
1.676
1.676
1.676
1.667
1.662
1.672
1.681
1.672
1.657
1.667
1.681
1.676
1.667
1.662
1.672
1.672
1.657
1.662
1.681
1.681
1.676
1.676
1.696
1.711
1.696
1.686
1.691
1.681
1.672
1.662
1.672
1.686
1.676
1.667
1.676
1.691
1.681
1.667
1.662
1.676
1.676
1.662
1.667
1.686
1.691
1.681
1.681
1.696
1.706
1.691
1.681
1.691
1.696
1.686
1.676
1.676
1.676
1.662
1.652
1.667
1.681
1.676
1.662
1.652
1.662
1.657
1.642
1.647
1.667
1.681
1.691
1.701
1.72
1.725
1.706
1.701
1.711
1.72
1.711
1.706
1.716
1.73
1.725
1.716
1.72
1.725
1.72
1.706
1.706
1.716
1.72
1.716
1.725
1.74
1.745
1.735
1.72
1.725
1.72
1.696
1.681
1.691
1.701
1.696
1.686
1.686
1.701
1.696
1.676
1.672
1.676
1.672
1.657
1.652
1.672
1.681
1.672
1.672
1.681
1.686
1.681
1.676
1.686
1.691
1.676
1.667
1.672
1.676
1.672
1.667
1.676
1.686
1.686
1.681
1.696
1.716
1.72
1.711
1.711
1.74
1.76
1.769
1.794
1.833
1.867
1.896
1.931
1.975
2.009
2.004
1.999
1.999
1.984
1.935
1.872
1.813
1.76
1.691
1.628
1.603
1.593
1.588
1.588
1.603
1.623
1.628
1.618
1.632
1.662
1.681
1.686
1.691
1.701
1.706
1.686
1.676
1.681
1.676
1.662
1.642
1.652
1.667
1.667
1.662
1.676
1.691
1.691
1.681
1.681
1.701
1.696
1.681
1.686
1.701
1.706
1.696
1.696
1.711
1.72
1.716
1.711
1.72
1.725
1.72
1.716
1.725
1.735
1.725
1.711
1.711
1.711
1.696
1.686
1.681
1.691
1.691
1.681
1.686
1.701
1.706
1.706
1.706
1.72
1.73
1.72
1.72
1.735
1.745
1.735
1.725
1.735
1.75
1.75
1.75
1.764
1.774
1.774
1.774
1.779
1.789
1.784
1.76
1.755
1.764
1.764
1.76
1.76
1.774
1.794
1.789
1.799
1.813
1.823
1.804
1.774
1.764
1.769
1.764
1.764
1.779
1.794
1.794
1.794
1.799
1.808
1.799
1.774
1.764
1.779
1.784
1.779
1.779
1.784
1.779
1.76
1.745
1.755
1.755
1.75
1.74
1.745
1.755
1.74
1.725
1.73
1.725
1.711
1.691
1.686
1.686
1.676
1.647
1.652
1.667
1.672
1.662
1.657
1.667
1.681
1.667
1.657
1.657
1.657
1.657
1.662
1.681
1.696
1.691
1.681
1.691
1.701
1.691
1.676
1.667
1.672
1.667
1.652
1.652
1.667
1.667
1.667
1.667
1.691
1.706
1.696
1.691
1.696
1.696
1.676
1.657
1.652
1.667
1.662
1.662
1.676
1.696
1.696
1.696
1.696
1.701
1.691
1.667
1.662
1.672
1.681
1.681
1.686
1.706
1.716
1.696
1.691
1.696
1.691
1.676
1.667
1.676
1.696
1.696
1.686
1.696
1.706
1.701
1.691
1.691
1.696
1.681
1.657
1.657
1.681
1.686
1.676
1.667
1.672
1.676
1.657
1.657
1.676
1.676
1.662
1.647
1.657
1.681
1.686
1.691
1.716
1.74
1.74
1.725
1.716
1.716
1.696
1.662
1.647
1.652
1.657
1.657
1.662
1.676
1.686
1.676
1.676
1.686
1.686
1.676
1.667
1.672
1.686
1.672
1.657
1.662
1.676
1.676
1.672
1.686
1.706
1.711
1.701
1.711
1.73
1.735
1.735
1.73
1.735
1.73
1.706
1.696
1.706
1.706
1.701
1.701
1.72
1.745
1.74
1.735
1.745
1.745
1.73
1.711
1.701
1.706
1.701
1.681
1.681
1.691
1.686
1.667
1.652
1.657
1.662
1.652
1.657
1.676
1.696
1.696
1.691
1.691
1.696
1.686
1.676
1.681
1.696
1.696
1.686
1.686
1.701
1.701
1.681
1.676
1.686
1.686
1.676
1.681
1.701
1.716
1.706
1.706
1.716
1.725
1.725
1.735
1.774
1.818
1.838
1.862
1.901
1.945
1.97
1.975
1.97
1.96
1.931
1.877
1.833
1.794
1.75
1.696
1.657
1.637
1.623
1.593
1.584
1.598
1.608
1.618
1.628
1.652
1.676
1.681
1.676
1.686
1.691
1.686
1.667
1.662
1.667
1.662
1.652
1.657
1.672
1.667
1.647
1.637
1.647
1.652
1.642
1.642
1.657
1.672
1.681
1.691
1.706
1.72
1.711
1.706
1.72
1.73
1.72
1.706
1.701
1.706
1.691
1.672
1.672
1.676
1.672
1.652
1.647
1.662
1.676
1.672
1.676
1.696
1.711
1.711
1.706
1.716
1.72
1.701
1.676
1.676
1.681
1.676
1.672
1.676
1.701
1.711
1.706
1.72
1.735
1.74
1.735
1.735
1.745
1.745
1.725
1.73
1.75
1.764
1.764
1.76
1.764
1.769
1.76
1.745
1.755
1.769
1.769
1.76
1.755
1.764
1.769
1.76
1.76
1.764
1.76
1.755
1.755
1.774
1.779
1.76
1.745
1.755
1.76
1.745
1.73
1.725
1.73
1.73
1.725
1.74
1.75
1.75
1.745
1.75
1.76
1.755
1.735
1.725
1.735
1.735
1.725
1.716
1.72
1.72
1.696
1.681
1.681
1.676
1.662
1.647
1.647
1.657
1.642
1.628
1.632
1.642
1.642
1.642
1.642
1.657
1.657
1.642
1.632
1.628
1.623
1.613
1.618
1.637
1.647
1.637
1.642
1.667
1.676
1.662
1.642
1.637
1.647
1.637
1.632
1.647
1.662
1.672
1.672
1.681
1.696
1.686
1.662
1.652
1.652
1.642
1.623
1.618
1.628
1.642
1.632
1.637
1.657
1.672
1.667
1.662
1.672
1.681
1.667
1.657
1.662
1.667
1.657
1.637
1.637
1.652
1.657
1.647
1.652
1.662
1.662
1.662
1.662
1.676
1.686
1.667
1.662
1.676
1.681
1.676
1.657
1.647
1.642
1.628
1.613
1.632
1.652
1.652
1.652
1.657
1.676
1.676
1.662
1.657
1.657
1.652
1.647
1.647
1.662
1.657
1.642
1.637
1.657
1.662
1.657
1.652
1.662
1.676
1.672
1.662
1.672
1.686
1.686
1.672
1.667
1.672
1.662
1.642
1.637
1.652
1.657
1.657
1.662
1.681
1.691
1.676
1.672
1.676
1.662
1.628
1.613
1.618
1.642
1.642
1.642
1.672
1.691
1.691
1.686
1.691
1.706
1.706
1.696
1.711
1.73
1.735
1.725
1.716
1.711
1.696
1.672
1.662
1.672
1.681
1.681
1.681
1.696
1.711
1.701
1.686
1.676
1.672
1.647
1.628
1.618
1.623
1.613
1.608
1.623
1.642
1.657
1.657
1.667
1.681
1.686
1.667
1.652
1.662
1.662
1.652
1.642
1.647
1.657
1.652
1.652
1.672
1.686
1.681
1.672
1.672
1.686
1.686
1.686
1.716
1.76
1.794
1.828
1.857
1.901
1.935
1.945
1.96
1.97
1.965
1.94
1.906
1.877
1.833
1.764
1.691
1.637
1.593
1.554
1.54
1.554
1.584
1.593
1.598
1.623
1.652
1.667
1.662
1.652
1.657
1.662
1.642
1.642
1.662
1.667
1.662
1.652
1.662
1.667
1.652
1.637
1.642
1.652
1.652
1.657
1.672
1.696
1.696
1.681
1.681
1.686
1.676
1.662
1.647
1.652
1.662
1.652
1.657
1.676
1.681
1.676
1.672
1.681
1.696
1.686
1.667
1.667
1.676
1.676
1.667
1.667
1.676
1.676
1.667
1.676
1.696
1.706
1.701
1.696
1.711
1.706
1.686
1.681
1.691
1.701
1.696
1.686
1.691
1.701
1.691
1.676
1.686
1.701
1.706
1.706
1.72
1.745
1.76
1.75
1.75
1.764
1.76
1.75
1.74
1.75
1.76
1.745
1.75
1.764
1.774
1.764
1.755
1.755
1.76
1.745
1.73
1.74
1.755
1.76
1.75
1.745
1.755
1.755
1.745
1.75
1.764
1.769
1.764
1.76
1.764
1.769
1.745
1.735
1.745
1.75
1.735
1.72
1.725
1.725
1.706
1.686
1.686
1.691
1.676
1.657
1.662
1.672
1.672
1.652
1.652
1.667
1.672
1.662
1.662
1.672
1.676
1.657
1.662
1.676
1.681
1.662
1.637
1.632
1.637
1.623
1.613
1.628
1.642
1.647
1.642
1.647
1.657
1.657
1.637
1.632
1.637
1.637
1.637
1.642
1.662
1.667
1.652
1.647
1.652
1.652
1.642
1.637
1.642
1.642
1.628
1.618
1.632
1.647
1.647
1.652
1.657
1.676
1.672
1.652
1.652
1.662
1.662
1.647
1.652
1.672
1.691
1.691
1.701
1.716
1.706
1.681
1.657
1.652
1.662
1.647
1.642
1.652
1.657
1.657
1.662
1.676
1.701
1.706
1.686
1.681
1.691
1.691
1.676
1.662
1.662
1.662
1.647
1.647
1.662
1.676
1.676
1.672
1.676
1.686
1.672
1.662
1.662
1.672
1.667
1.657
1.662
1.672
1.667
1.657
1.672
1.696
1.696
1.686
1.676
1.686
1.691
1.667
1.657
1.662
1.662
1.657
1.657
1.672
1.691
1.681
1.676
1.691
1.701
1.701
1.696
1.691
1.696
1.691
1.681
1.691
1.716
1.725
1.72
1.725
1.73
1.725
1.691
1.676
1.681
1.686
1.686
1.686
1.706
1.72
1.711
1.691
1.701
1.711
1.706
1.691
1.691
1.711
1.72
1.711
1.706
1.701
1.676
1.647
1.637
1.642
1.657
1.647
1.657
1.686
1.696
1.691
1.691
1.706
1.72
1.701
1.681
1.686
1.696
1.696
1.686
1.676
1.681
1.676
1.667
1.676
1.691
1.691
1.681
1.672
1.681
1.681
1.667
1.662
1.681
1.701
1.72
1.74
1.779
1.828
1.857
1.887
1.926
1.96
1.97
1.96
1.95
1.935
1.891
1.823
1.769
1.725
1.686
1.647
1.628
1.632
1.642
1.642
1.652
1.686
1.696
1.691
1.686
1.691
1.696
1.676
1.662
1.672
1.686
1.686
1.681
1.686
1.691
1.681
1.662
1.657
1.662
1.657
1.652
1.647
1.662
1.667
1.662
1.662
1.672
1.676
1.667
1.662
1.676
1.691
1.686
1.676
1.681
1.691
1.691
1.681
1.681
1.696
1.696
1.681
1.696
1.72
1.735
1.735
1.73
1.735
1.735
1.716
1.706
1.711
1.706
1.696
1.686
1.696
1.711
1.701
1.696
1.716
1.73
1.73
1.716
1.716
1.725
1.716
1.696
1.696
1.711
1.711
1.701
1.706
1.725
1.745
1.74
1.745
1.764
1.779
1.779
1.779
1.784
1.794
1.779
1.76
1.764
1.764
1.75
1.735
1.735
1.745
1.745
1.74
1.755
1.774
1.779
1.774
1.774
1.789
1.799
1.784
1.789
1.804
1.813
1.794
1.774
1.769
1.774
1.75
1.735
1.74
1.745
1.735
1.73
1.74
1.76
1.764
1.75
1.74
1.74
1.72
1.701
1.691
1.691
1.686
1.667
1.672
1.696
1.706
1.696
1.681
1.672
1.657
1.628
1.603
1.603
1.613
1.618
1.628
1.647
1.676
1.681
1.667
1.662
1.667
1.662
1.662
1.657
1.662
1.657
1.637
1.632
1.637
1.642
1.632
1.623
1.632
1.647
1.647
1.647
1.672
1.691
1.696
1.681
1.676
1.681
1.676
1.662
1.657
1.667
1.657
1.647
1.652
1.672
1.686
1.667
1.657
1.662
1.667
1.657
1.652
1.667
1.681
1.676
1.667
1.676
1.676
1.662
1.647
1.647
1.657
1.657
1.652
1.667
1.686
1.691
1.681
1.662
1.657
1.652
1.632
1.632
1.647
1.657
1.667
1.676
1.696
1.711
1.691
1.667
1.672
1.676
1.667
1.657
1.662
1.672
1.667
1.652
1.657
1.672
1.672
1.672
1.676
1.691
1.691
1.662
1.652
1.657
1.657
1.637
1.628
1.637
1.662
1.667
1.667
1.686
1.696
1.686
1.676
1.676
1.681
1.676
1.657
1.662
1.672
1.667
1.652
1.647
1.667
1.686
1.681
1.686
1.706
1.72
1.716
1.716
1.72
1.725
1.701
1.676
1.676
1.686
1.681
1.676
1.681
1.696
1.691
1.676
1.676
1.696
1.696
1.691
1.691
1.701
1.706
1.686
1.681
1.681
1.676
1.657
1.637
1.637
1.642
1.632
1.618
1.632
1.652
1.662
1.662
1.662
1.676
1.667
1.652
1.657
1.667
1.667
1.657
1.647
1.657
1.662
1.647
1.647
1.662
1.667
1.662
1.657
1.672
1.691
1.681
1.676
1.691
1.706
1.716
1.725
1.75
1.799
1.838
1.867
1.911
1.955
1.975
1.965
1.955
1.94
1.901
1.838
1.789
1.76
1.711
1.662
1.623
1.608
1.608
1.598
1.593
1.613
1.628
1.632
1.637
1.642
1.652
1.647
1.623
1.628
1.647
1.662
1.662
1.667
1.681
1.696
1.686
1.691
1.696
1.691
1.676
1.657
1.657
1.667
1.647
1.637
1.637
1.642
1.637
1.632
1.637
1.647
1.642
1.632
1.642
1.667
1.681
1.686
1.691
1.696
1.696
1.667
1.652
1.657
1.662
1.662
1.667
1.681
1.701
1.696
1.691
1.696
1.701
1.691
1.672
1.672
1.686
1.686
1.676
1.681
1.686
1.686
1.681
1.686
1.711
1.725
1.72
1.72
1.735
1.73
1.716
1.696
1.686
1.691
1.672
1.667
1.681
1.711
1.725
1.735
1.755
1.779
1.784
1.76
1.755
1.76
1.75
1.735
1.725
1.73
1.74
1.74
1.745
1.764
1.769
1.755
1.745
1.755
1.769
1.764
1.76
1.769
1.784
1.779
1.764
1.755
1.755
1.735
1.716
1.716
1.73
1.735
1.725
1.725
1.74
1.745
1.73
1.72
1.725
1.72
1.706
1.696
1.696
1.696
1.681
1.667
1.672
1.681
1.672
1.652
1.642
1.642
1.628
1.608
1.608
1.623
1.623
1.613
1.613
1.632
1.642
1.632
1.632
1.642
1.642
1.632
1.623
1.628
1.637
1.628
1.628
1.642
1.662
1.662
1.657
1.662
1.667
1.657
1.632
1.628
1.637
1.642
1.632
1.632
1.652
1.667
1.657
1.657
1.662
1.662
1.657
1.647
1.652
1.657
1.642
1.632
1.637
1.652
1.647
1.642
1.647
1.672
1.676
1.672
1.681
1.686
1.676
1.657
1.647
1.657
1.667
1.652
1.647
1.667
1.676
1.672
1.667
1.667
1.667
1.642
1.628
1.632
1.652
1.652
1.652
1.662
1.676
1.667
1.647
1.647
1.657
1.647
1.628
1.623
1.637
1.652
1.642
1.647
1.662
1.676
1.672
1.662
1.672
1.681
1.667
1.652
1.657
1.662
1.662
1.657
1.662
1.676
1.672
1.652
1.652
1.667
1.672
1.667
1.667
1.676
1.681
1.667
1.667
1.676
1.686
1.676
1.667
1.667
1.667
1.647
1.637
1.647
1.657
1.647
1.637
1.637
1.657
1.662
1.652
1.662
1.667
1.667
1.662
1.672
1.691
1.696
1.667
1.652
1.657
1.667
1.667
1.672
1.686
1.706
1.706
1.701
1.716
1.72
1.716
1.691
1.681
1.686
1.681
1.672
1.681
1.706
1.711
1.711
1.711
1.72
1.725
1.706
1.701
1.716
1.711
1.701
1.691
1.686
1.691
1.672
1.657
1.667
1.667
1.652
1.637
1.637
1.652
1.647
1.642
1.647
1.652
1.642
1.628
1.623
1.632
1.642
1.632
1.637
1.657
1.672
1.676
1.676
1.691
1.696
1.676
1.652
1.652
1.652
1.657
1.672
1.706
1.76
1.794
1.818
1.867
1.921
1.96
1.984
2.009
2.033
2.028
1.989
1.95
1.921
1.872
1.799
1.73
1.681
1.647
1.608
1.588
1.598
1.618
1.618
1.608
1.608
1.623
1.632
1.632
1.647
1.667
1.667
1.657
1.652
1.657
1.657
1.637
1.637
1.647
1.657
1.652
1.652
1.657
1.662
1.642
1.632
1.647
1.657
1.652
1.642
1.642
1.652
1.642
1.613
1.613
1.632
1.647
1.652
1.662
1.691
1.706
1.691
1.691
1.706
1.711
1.706
1.696
1.706
1.72
1.716
1.706
1.716
1.72
1.706
1.691
1.686
1.696
1.686
1.676
1.681
1.691
1.686
1.676
1.676
1.691
1.696
1.681
1.676
1.686
1.696
1.691
1.691
1.701
1.711
1.691
1.681
1.691
1.711
1.716
1.711
1.725
1.755
1.764
1.75
1.76
1.764
1.76
1.74
1.73
1.74
1.75
1.745
1.755
1.774
1.789
1.789
1.779
1.774
1.779
1.76
1.75
1.755
1.764
1.76
1.755
1.764
1.779
1.779
1.75
1.745
1.75
1.745
1.73
1.725
1.725
1.725
1.706
1.706
1.711
1.716
1.706
1.701
1.701
1.701
1.686
1.672
1.672
1.672
1.662
1.657
1.662
1.676
1.681
1.676
1.681
1.686
1.681
1.667
1.652
1.647
1.637
1.608
1.598
1.613
1.632
1.637
1.642
1.662
1.681
1.672
1.652
1.647
1.642
1.628
1.618
1.613
1.628
1.632
1.623
1.632
1.642
1.642
1.632
1.632
1.652
1.662
1.657
1.662
1.691
1.706
1.701
1.691
1.696
1.696
1.676
1.662
1.662
1.662
1.652
1.637
1.637
1.652
1.657
1.647
1.652
1.672
1.672
1.657
1.652
1.662
1.662
1.642
1.637
1.647
1.652
1.642
1.632
1.642
1.662
1.657
1.657
1.672
1.686
1.686
1.676
1.681
1.696
1.686
1.667
1.667
1.681
1.676
1.667
1.657
1.657
1.657
1.642
1.642
1.662
1.676
1.681
1.686
1.696
1.706
1.686
1.662
1.657
1.662
1.652
1.642
1.652
1.672
1.676
1.662
1.672
1.686
1.672
1.647
1.628
1.632
1.647
1.642
1.652
1.672
1.686
1.686
1.686
1.691
1.696
1.676
1.652
1.652
1.657
1.652
1.652
1.657
1.676
1.681
1.676
1.686
1.701
1.701
1.691
1.691
1.701
1.701
1.681
1.672
1.686
1.686
1.672
1.667
1.672
1.691
1.686
1.681
1.696
1.711
1.711
1.706
1.706
1.72
1.711
1.701
1.711
1.725
1.725
1.711
1.701
1.711
1.711
1.686
1.676
1.691
1.701
1.696
1.696
1.696
1.701
1.681
1.662
1.672
1.681
1.686
1.686
1.696
1.711
1.711
1.701
1.706
1.711
1.701
1.686
1.681
1.691
1.691
1.667
1.647
1.637
1.628
1.618
1.613
1.632
1.652
1.657
1.667
1.691
1.716
1.711
1.696
1.686
1.686
1.672
1.662
1.681
1.73
1.769
1.804
1.843
1.896
1.94
1.96
1.984
2.014
2.023
2.009
1.979
1.95
1.921
1.862
1.794
1.74
1.696
1.657
1.618
1.598
1.598
1.603
1.608
1.623
1.642
1.652
1.647
1.657
1.676
1.681
1.667
1.657
1.662
1.657
1.647
1.637
1.647
1.657
1.652
1.647
1.662
1.676
1.676
1.667
1.667
1.681
1.676
1.662
1.667
1.681
1.691
1.686
1.686
1.701
1.696
1.681
1.672
1.681
1.686
1.681
1.681
1.691
1.701
1.686
1.676
1.686
1.696
1.691
1.686
1.691
1.706
1.706
1.696
1.701
1.711
1.711
1.701
1.696
1.716
1.725
1.711
1.706
1.72
1.72
1.711
1.686
1.681
1.681
1.662
1.652
1.672
1.696
1.711
1.72
1.745
1.779
1.789
1.774
1.769
1.769
1.76
1.735
1.72
1.725
1.73
1.72
1.72
1.75
1.764
1.764
1.76
1.769
1.779
1.755
1.735
1.745
1.755
1.75
1.745
1.75
1.774
1.779
1.779
1.784
1.794
1.789
1.769
1.745
1.74
1.73
1.711
1.711
1.73
1.74
1.74
1.74
1.745
1.745
1.72
1.686
1.676
1.672
1.662
1.657
1.662
1.681
1.681
1.662
1.662
1.662
1.652
1.628
1.623
1.637
1.647
1.642
1.652
1.676
1.691
1.681
1.667
1.676
1.681
1.667
1.647
1.647
1.647
1.637
1.632
1.628
1.642
1.642
1.632
1.642
1.657
1.662
1.647
1.642
1.647
1.652
1.632
1.628
1.642
1.652
1.647
1.642
1.652
1.657
1.642
1.632
1.642
1.657
1.647
1.632
1.628
1.642
1.632
1.613
1.618
1.637
1.642
1.642
1.642
1.662
1.672
1.662
1.657
1.667
1.676
1.672
1.672
1.681
1.696
1.681
1.667
1.667
1.667
1.652
1.637
1.642
1.657
1.662
1.652
1.662
1.676
1.681
1.672
1.667
1.672
1.676
1.667
1.672
1.681
1.686
1.676
1.662
1.657
1.662
1.642
1.623
1.623
1.632
1.632
1.637
1.652
1.681
1.686
1.676
1.681
1.701
1.706
1.691
1.681
1.676
1.672
1.642
1.632
1.642
1.652
1.652
1.652
1.672
1.691
1.691
1.691
1.706
1.711
1.701
1.681
1.676
1.681
1.672
1.647
1.647
1.657
1.662
1.662
1.662
1.676
1.681
1.662
1.657
1.672
1.672
1.657
1.652
1.662
1.667
1.652
1.652
1.672
1.691
1.686
1.676
1.676
1.691
1.691
1.681
1.686
1.691
1.686
1.686
1.691
1.711
1.725
1.711
1.701
1.716
1.72
1.72
1.716
1.72
1.725
1.716
1.706
1.711
1.716
1.696
1.672
1.657
1.667
1.676
1.667
1.681
1.696
1.706
1.701
1.701
1.706
1.701
1.676
1.667
1.672
1.667
1.652
1.647
1.662
1.676
1.662
1.642
1.647
1.662
1.667
1.657
1.657
1.667
1.667
1.657
1.672
1.691
1.691
1.681
1.681
1.691
1.696
1.681
1.686
1.706
1.711
1.696
1.672
1.676
1.686
1.681
1.686
1.72
1.764
1.808
1.852
1.916
1.989
2.038
2.053
2.072
2.072
2.043
1.979
1.911
1.848
1.779
1.691
1.632
1.603
1.584
1.574
1.579
1.598
1.618
1.618
1.623
1.642
1.662
1.662
1.657
1.667
1.686
1.686
1.676
1.686
1.701
1.701
1.691
1.686
1.691
1.686
1.657
1.647
1.647
1.647
1.642
1.642
1.657
1.676
1.672
1.676
1.696
1.701
1.691
1.676
1.672
1.672
1.657
1.642
1.647
1.672
1.686
1.686
1.691
1.711
1.725
1.716
1.706
1.711
1.706
1.701
1.691
1.706
1.716
1.706
1.691
1.696
1.701
1.691
1.676
1.681
1.701
1.701
1.691
1.701
1.725
1.735
1.725
1.72
1.725
1.73
1.72
1.725
1.74
1.75
1.74
1.735
1.74
1.75
1.735
1.725
1.735
1.75
1.75
1.745
1.755
1.769
1.774
1.76
1.764
1.774
1.774
1.76
1.755
1.764
1.774
1.764
1.769
1.789
1.799
1.799
1.794
1.799
1.808
1.789
1.774
1.774
1.774
1.764
1.745
1.74
1.755
1.75
1.74
1.75
1.764
1.769
1.76
1.745
1.745
1.73
1.701
1.686
1.691
1.696
1.691
1.686
1.691
1.701
1.691
1.681
1.691
1.706
1.701
1.686
1.676
1.681
1.676
1.652
1.642
1.637
1.632
1.623
1.628
1.647
1.667
1.657
1.657
1.667
1.672
1.667
1.662
1.667
1.676
1.662
1.652
1.662
1.672
1.657
1.647
1.647
1.662
1.657
1.642
1.647
1.667
1.672
1.667
1.662
1.676
1.681
1.662
1.662
1.672
1.676
1.672
1.667
1.672
1.686
1.681
1.672
1.681
1.691
1.686
1.667
1.662
1.662
1.657
1.637
1.632
1.642
1.642
1.647
1.662
1.681
1.691
1.676
1.676
1.686
1.696
1.686
1.681
1.681
1.686
1.672
1.667
1.676
1.691
1.686
1.676
1.681
1.701
1.701
1.686
1.691
1.701
1.696
1.686
1.676
1.681
1.686
1.667
1.652
1.662
1.662
1.662
1.662
1.676
1.691
1.686
1.676
1.686
1.696
1.691
1.676
1.676
1.681
1.667
1.637
1.628
1.632
1.637
1.647
1.667
1.691
1.711
1.696
1.696
1.706
1.701
1.681
1.662
1.662
1.676
1.672
1.672
1.691
1.706
1.701
1.681
1.672
1.676
1.672
1.662
1.672
1.696
1.711
1.711
1.706
1.711
1.711
1.686
1.676
1.686
1.691
1.686
1.691
1.701
1.711
1.696
1.681
1.681
1.676
1.662
1.657
1.672
1.701
1.716
1.72
1.74
1.764
1.76
1.74
1.72
1.72
1.711
1.686
1.681
1.701
1.716
1.716
1.716
1.725
1.735
1.711
1.691
1.696
1.696
1.686
1.676
1.676
1.691
1.686
1.667
1.667
1.681
1.676
1.667
1.662
1.672
1.681
1.672
1.672
1.681
1.686
1.672
1.662
1.667
1.681
1.676
1.672
1.686
1.711
1.716
1.706
1.701
1.706
1.696
1.676
1.672
1.681
1.676
1.672
1.686
1.711
1.74
1.745
1.764
1.808
1.852
1.891
1.931
1.979
2.023
2.028
2.023
2.014
1.984
1.926
1.857
1.799
1.75
1.696
1.642
1.618
1.608
1.598
1.588
1.588
1.608
1.628
1.623
1.637
1.662
1.691
1.696
1.691
1.696
1.701
1.686
1.672
1.681
1.696
1.701
1.696
1.696
1.701
1.686
1.662
1.657
1.662
1.662
1.652
1.657
1.676
1.701
1.696
1.706
1.72
1.725
1.711
1.701
1.701
1.706
1.691
1.681
1.696
1.711
1.706
1.701
1.701
1.706
1.691
1.667
1.667
1.681
1.686
1.691
1.696
1.711
1.72
1.706
1.701
1.716
1.725
1.72
1.716
1.73
1.745
1.74
1.735
1.745
1.75
1.74
1.725
1.716
1.72
1.706
1.696
1.706
1.725
1.74
1.745
1.755
1.774
1.784
1.769
1.769
1.774
1.774
1.76
1.755
1.769
1.789
1.784
1.774
1.779
1.784
1.779
1.774
1.779
1.799
1.794
1.774
1.769
1.779
1.774
1.76
1.75
1.76
1.769
1.76
1.764
1.779
1.789
1.779
1.769
1.779
1.784
1.769
1.75
1.755
1.76
1.75
1.73
1.72
1.716
1.701
1.681
1.676
1.676
1.667
1.657
1.657
1.672
1.686
1.676
1.676
1.686
1.691
1.681
1.667
1.672
1.672
1.647
1.618
1.623
1.632
1.628
1.623
1.623
1.642
1.647
1.647
1.667
1.691
1.696
1.691
1.686
1.686
1.681
1.652
1.637
1.642
1.642
1.632
1.628
1.642
1.652
1.647
1.637
1.647
1.657
1.657
1.647
1.652
1.667
1.676
1.667
1.676
1.696
1.701
1.691
1.681
1.686
1.686
1.672
1.662
1.667
1.667
1.652
1.642
1.647
1.657
1.652
1.647
1.657
1.681
1.681
1.676
1.681
1.691
1.676
1.652
1.642
1.652
1.657
1.662
1.667
1.691
1.706
1.696
1.691
1.701
1.691
1.676
1.662
1.672
1.691
1.681
1.667
1.672
1.676
1.667
1.652
1.647
1.657
1.657
1.647
1.662
1.681
1.686
1.681
1.681
1.691
1.696
1.691
1.686
1.701
1.711
1.696
1.681
1.676
1.676
1.652
1.637
1.642
1.647
1.647
1.642
1.642
1.657
1.662
1.657
1.667
1.686
1.696
1.691
1.691
1.701
1.706
1.686
1.676
1.686
1.691
1.686
1.681
1.686
1.691
1.676
1.662
1.667
1.676
1.676
1.672
1.686
1.716
1.725
1.725
1.735
1.75
1.745
1.725
1.711
1.711
1.716
1.706
1.701
1.716
1.725
1.72
1.72
1.725
1.725
1.706
1.691
1.691
1.706
1.711
1.711
1.711
1.716
1.696
1.662
1.647
1.652
1.647
1.637
1.637
1.657
1.676
1.676
1.681
1.686
1.681
1.662
1.652
1.657
1.672
1.662
1.652
1.657
1.662
1.657
1.647
1.647
1.672
1.686
1.691
1.716
1.745
1.75
1.74
1.74
1.76
1.774
1.774
1.789
1.828
1.867
1.906
1.935
1.975
1.999
1.984
1.945
1.921
1.887
1.838
1.779
1.73
1.691
1.652
1.608
1.593
1.598
1.608
1.603
1.608
1.628
1.637
1.637
1.652
1.672
1.681
1.672
1.662
1.662
1.667
1.647
1.632
1.642
1.662
1.667
1.667
1.676
1.701
1.706
1.696
1.696
1.701
1.691
1.662
1.637
1.632
1.637
1.632
1.642
1.667
1.691
1.701
1.711
1.72
1.725
1.706
1.681
1.676
1.681
1.681
1.686
1.691
1.711
1.711
1.701
1.711
1.725
1.725
1.706
1.696
1.701
1.701
1.686
1.676
1.686
1.701
1.701
1.701
1.716
1.74
1.74
1.73
1.735
1.73
1.711
1.691
1.691
1.706
1.716
1.716
1.735
1.76
1.769
1.769
1.76
1.764
1.764
1.745
1.735
1.745
1.755
1.745
1.74
1.75
1.764
1.75
1.735
1.75
1.769
1.774
1.774
1.779
1.794
1.789
1.774
1.774
1.784
1.789
1.779
1.769
1.779
1.779
1.76
1.75
1.764
1.774
1.769
1.76
1.764
1.774
1.764
1.745
1.75
1.75
1.735
1.716
1.701
1.701
1.691
1.667
1.662
1.667
1.667
1.662
1.667
1.681
1.681
1.667
1.657
1.667
1.667
1.647
1.632
1.637
1.657
1.657
1.647
1.647
1.647
1.642
1.632
1.632
1.642
1.637
1.618
1.618
1.642
1.652
1.652
1.652
1.667
1.676
1.662
1.652
1.657
1.662
1.652
1.642
1.642
1.657
1.662
1.662
1.676
1.691
1.686
1.672
1.672
1.676
1.667
1.647
1.637
1.647
1.647
1.642
1.637
1.647
1.657
1.637
1.632
1.642
1.652
1.637
1.623
1.628
1.647
1.652
1.657
1.672
1.681
1.676
1.672
1.676
1.696
1.691
1.676
1.676
1.691
1.691
1.681
1.676
1.681
1.676
1.652
1.647
1.662
1.676
1.681
1.681
1.691
1.696
1.676
1.652
1.657
1.662
1.657
1.647
1.652
1.667
1.667
1.642
1.637
1.637
1.628
1.613
1.608
1.618
1.642
1.647
1.662
1.691
1.711
1.711
1.696
1.686
1.686
1.667
1.637
1.628
1.628
1.628
1.628
1.642
1.662
1.676
1.667
1.667
1.672
1.672
1.662
1.657
1.667
1.676
1.662
1.662
1.686
1.696
1.681
1.667
1.667
1.681
1.672
1.667
1.686
1.706
1.711
1.706
1.701
1.711
1.701
1.676
1.672
1.681
1.681
1.676
1.681
1.696
1.706
1.696
1.701
1.72
1.735
1.73
1.716
1.716
1.716
1.696
1.676
1.676
1.681
1.676
1.672
1.676
1.686
1.676
1.657
1.652
1.657
1.642
1.623
1.618
1.637
1.647
1.632
1.632
1.652
1.667
1.662
1.652
1.657
1.676
1.676
1.676
1.686
1.701
1.696
1.686
1.676
1.676
1.672
1.647
1.652
1.667
1.676
1.681
1.696
1.735
1.774
1.794
1.828
1.867
1.911
1.94
1.955
1.979
1.989
1.965
1.921
1.882
1.848
1.799
1.74
1.696
1.662
1.628
1.598
1.593
1.598
1.598
1.598
1.608
1.628
1.632
1.618
1.623
1.647
1.657
1.657
1.652
1.667
1.686
1.676
1.652
1.647
1.652
1.647
1.637
1.647
1.667
1.676
1.672
1.686
1.701
1.706
1.691
1.676
1.676
1.672
1.652
1.642
1.657
1.672
1.672
1.667
1.672
1.681
1.672
1.657
1.662
1.672
1.672
1.662
1.667
1.681
1.691
1.691
1.706
1.716
1.711
1.691
1.681
1.686
1.691
1.672
1.667
1.676
1.691
1.696
1.701
1.711
1.725
1.716
1.701
1.706
1.716
1.72
1.711
1.716
1.735
1.735
1.716
1.72
1.73
1.735
1.725
1.725
1.735
1.74
1.73
1.73
1.75
1.764
1.76
1.75
1.755
1.769
1.755
1.735
1.74
1.75
1.745
1.725
1.725
1.74
1.75
1.745
1.764
1.784
1.784
1.769
1.76
1.769
1.769
1.75
1.745
1.755
1.769
1.764
1.76
1.755
1.755
1.735
1.716
1.711
1.72
1.711
1.696
1.696
1.701
1.691
1.662
1.652
1.662
1.662
1.657
1.662
1.676
1.686
1.672
1.667
1.681
1.686
1.676
1.672
1.672
1.676
1.652
1.632
1.628
1.632
1.628
1.623
1.632
1.652
1.662
1.642
1.642
1.647
1.637
1.618
1.608
1.623
1.637
1.632
1.642
1.667
1.681
1.672
1.662
1.657
1.667
1.657
1.647
1.657
1.672
1.667
1.657
1.652
1.662
1.662
1.642
1.637
1.652
1.652
1.652
1.652
1.667
1.676
1.662
1.657
1.662
1.662
1.652
1.647
1.662
1.686
1.686
1.686
1.701
1.716
1.711
1.696
1.681
1.681
1.672
1.652
1.657
1.672
1.672
1.662
1.652
1.662
1.662
1.647
1.642
1.657
1.662
1.662
1.657
1.667
1.672
1.662
1.647
1.652
1.662
1.667
1.667
1.672
1.681
1.681
1.662
1.657
1.667
1.667
1.652
1.647
1.662
1.672
1.662
1.652
1.667
1.672
1.662
1.642
1.637
1.642
1.632
1.628
1.652
1.676
1.691
1.701
1.706
1.72
1.716
1.696
1.686
1.686
1.676
1.667
1.667
1.676
1.686
1.667
1.657
1.667
1.681
1.672
1.662
1.667
1.686
1.686
1.676
1.681
1.696
1.701
1.701
1.711
1.725
1.716
1.686
1.686
1.701
1.706
1.696
1.686
1.686
1.696
1.686
1.691
1.706
1.711
1.701
1.691
1.681
1.686
1.667
1.647
1.647
1.652
1.652
1.647
1.657
1.681
1.686
1.672
1.662
1.667
1.657
1.642
1.628
1.642
1.652
1.652
1.662
1.676
1.686
1.676
1.662
1.662
1.672
1.657
1.647
1.657
1.672
1.672
1.657
1.652
1.667
1.672
1.676
1.711
1.755
1.804
1.838
1.877
1.931
1.975
1.984
1.989
1.999
1.989
1.955
1.916
1.887
1.848
1.784
1.716
1.672
1.632
1.593
1.564
1.554
1.574
1.584
1.584
1.598
1.623
1.632
1.637
1.642
1.662
1.681
1.672
1.667
1.672
1.676
1.672
1.657
1.652
1.657
1.647
1.637
1.652
1.667
1.667
1.657
1.657
1.667
1.667
1.652
1.662
1.686
1.701
1.696
1.686
1.686
1.681
1.657
1.637
1.642
1.652
1.652
1.657
1.672
1.696
1.691
1.686
1.691
1.701
1.696
1.681
1.676
1.681
1.681
1.662
1.662
1.672
1.672
1.667
1.667
1.686
1.696
1.681
1.676
1.691
1.716
1.725
1.725
1.725
1.735
1.725
1.711
1.711
1.716
1.711
1.706
1.706
1.73
1.745
1.745
1.76
1.774
1.774
1.755
1.73
1.725
1.725
1.706
1.706
1.725
1.755
1.769
1.774
1.789
1.804
1.799
1.789
1.789
1.784
1.764
1.74
1.73
1.74
1.74
1.725
1.73
1.75
1.76
1.76
1.75
1.75
1.755
1.735
1.725
1.73
1.73
1.72
1.706
1.711
1.72
1.711
1.691
1.696
1.696
1.691
1.676
1.662
1.662
1.647
1.623
1.623
1.637
1.647
1.652
1.662
1.681
1.696
1.686
1.676
1.676
1.662
1.637
1.618
1.623
1.637
1.632
1.623
1.628
1.637
1.642
1.637
1.632
1.642
1.637
1.618
1.618
1.628
1.637
1.632
1.632
1.647
1.667
1.657
1.657
1.667
1.667
1.657
1.642
1.637
1.642
1.632
1.623
1.632
1.647
1.657
1.657
1.662
1.676
1.667
1.647
1.647
1.662
1.662
1.657
1.652
1.662
1.667
1.647
1.642
1.652
1.657
1.652
1.642
1.642
1.662
1.657
1.647
1.652
1.662
1.657
1.647
1.652
1.672
1.672
1.657
1.662
1.672
1.676
1.672
1.662
1.667
1.672
1.647
1.632
1.637
1.647
1.647
1.647
1.652
1.672
1.676
1.672
1.681
1.686
1.676
1.662
1.657
1.667
1.662
1.642
1.642
1.657
1.662
1.652
1.647
1.662
1.672
1.667
1.667
1.676
1.676
1.667
1.647
1.647
1.647
1.632
1.623
1.632
1.657
1.667
1.667
1.672
1.681
1.681
1.667
1.667
1.686
1.696
1.696
1.686
1.696
1.706
1.691
1.681
1.691
1.691
1.681
1.681
1.701
1.72
1.711
1.696
1.696
1.701
1.696
1.681
1.676
1.691
1.701
1.701
1.711
1.725
1.725
1.716
1.706
1.711
1.711
1.681
1.657
1.657
1.662
1.657
1.647
1.652
1.667
1.657
1.642
1.652
1.667
1.667
1.662
1.662
1.672
1.667
1.647
1.642
1.647
1.647
1.637
1.642
1.657
1.681
1.676
1.676
1.691
1.706
1.696
1.676
1.667
1.662
1.647
1.632
1.642
1.667
1.686
1.706
1.74
1.794
1.833
1.852
1.887
1.931
1.965
1.979
1.989
2.004
2.004
1.97
1.926
1.887
1.833
1.76
1.691
1.637
1.608
1.579
1.559
1.569
1.598
1.613
1.623
1.632
1.652
1.652
1.632
1.637
1.647
1.647
1.637
1.628
1.632
1.642
1.637
1.637
1.657
1.676
1.676
1.672
1.681
1.696
1.686
1.676
1.676
1.686
1.672
1.657
1.652
1.667
1.672
1.657
1.667
1.681
1.691
1.681
1.681
1.691
1.696
1.676
1.657
1.657
1.657
1.657
1.662
1.686
1.711
1.711
1.706
1.716
1.725
1.716
1.696
1.681
1.686
1.676
1.662
1.662
1.681
1.691
1.686
1.681
1.696
1.716
1.706
1.706
1.72
1.73
1.72
1.716
1.725
1.735
1.725
1.716
1.725
1.74
1.735
1.725
1.72
1.735
1.74
1.73
1.735
1.745
1.745
1.74
1.74
1.755
1.76
1.74
1.735
1.75
1.769
1.769
1.769
1.769
1.769
1.74
1.725
1.73
1.75
1.75
1.75
1.755
1.769
1.779
1.764
1.76
1.764
1.76
1.74
1.725
1.73
1.74
1.725
1.72
1.725
1.73
1.72
1.706
1.701
1.701
1.676
1.647
1.652
1.662
1.662
1.647
1.647
1.662
1.662
1.647
1.647
1.657
1.657
1.647
1.637
1.647
1.652
1.632
1.613
1.603
1.603
1.603
1.598
1.618
1.652
1.667
1.667
1.681
1.691
1.681
1.662
1.652
1.652
1.637
1.618
1.628
1.652
1.667
1.672
1.676
1.691
1.696
1.672
1.647
1.642
1.637
1.623
1.613
1.623
1.642
1.652
1.652
1.662
1.681
1.681
1.667
1.652
1.647
1.642
1.628
1.632
1.647
1.657
1.662
1.662
1.672
1.672
1.652
1.642
1.652
1.657
1.642
1.628
1.637
1.657
1.657
1.652
1.667
1.691
1.696
1.686
1.686
1.696
1.686
1.662
1.652
1.657
1.647
1.642
1.642
1.662
1.681
1.676
1.672
1.681
1.672
1.652
1.632
1.637
1.652
1.647
1.642
1.652
1.672
1.676
1.667
1.662
1.662
1.652
1.628
1.618
1.632
1.642
1.637
1.637
1.657
1.672
1.667
1.667
1.686
1.691
1.681
1.667
1.662
1.672
1.662
1.647
1.647
1.657
1.652
1.652
1.657
1.681
1.691
1.681
1.676
1.686
1.691
1.686
1.676
1.681
1.691
1.676
1.667
1.681
1.696
1.701
1.701
1.711
1.72
1.716
1.711
1.72
1.735
1.73
1.72
1.72
1.73
1.725
1.696
1.686
1.696
1.691
1.672
1.662
1.676
1.691
1.681
1.681
1.691
1.686
1.662
1.642
1.637
1.647
1.642
1.632
1.647
1.667
1.667
1.672
1.676
1.691
1.686
1.662
1.662
1.676
1.681
1.667
1.652
1.652
1.657
1.642
1.642
1.657
1.672
1.672
1.667
1.667
1.676
1.662
1.647
1.657
1.681
1.701
1.72
1.745
1.789
1.823
1.843
1.877
1.931
1.97
1.999
2.019
2.048
2.063
2.038
1.999
1.96
1.906
1.823
1.735
1.667
1.623
1.584
1.549
1.544
1.564
1.584
1.603
1.623
1.652
1.662
1.642
1.637
1.642
1.642
1.632
1.628
1.642
1.657
1.647
1.637
1.647
1.657
1.652
1.647
1.657
1.667
1.662
1.662
1.686
1.716
1.72
1.711
1.706
1.716
1.711
1.691
1.681
1.691
1.691
1.681
1.672
1.686
1.701
1.701
1.701
1.711
1.716
1.706
1.696
1.701
1.72
1.711
1.691
1.691
1.696
1.696
1.681
1.676
1.681
1.681
1.672
1.672
1.696
1.711
1.716
1.716
1.735
1.745
1.725
1.711
1.72
1.73
1.73
1.72
1.72
1.735
1.73
1.73
1.74
1.755
1.75
1.74
1.74
1.755
1.76
1.75
1.755
1.769
1.774
1.76
1.745
1.75
1.755
1.74
1.73
1.745
1.75
1.745
1.755
1.769
1.794
1.794
1.784
1.784
1.794
1.794
1.789
1.784
1.789
1.784
1.76
1.75
1.764
1.769
1.764
1.755
1.76
1.764
1.745
1.735
1.745
1.75
1.735
1.716
1.711
1.716
1.701
1.686
1.686
1.691
1.676
1.662
1.652
1.657
1.657
1.637
1.637
1.647
1.647
1.637
1.642
1.667
1.691
1.681
1.672
1.676
1.681
1.667
1.657
1.662
1.672
1.667
1.657
1.667
1.681
1.676
1.662
1.647
1.647
1.642
1.628
1.632
1.652
1.667
1.667
1.676
1.691
1.701
1.676
1.662
1.662
1.667
1.662
1.652
1.662
1.676
1.676
1.662
1.667
1.672
1.672
1.652
1.637
1.642
1.647
1.637
1.652
1.676
1.691
1.696
1.696
1.706
1.711
1.696
1.681
1.686
1.691
1.681
1.667
1.662
1.667
1.662
1.652
1.657
1.667
1.667
1.667
1.676
1.701
1.706
1.686
1.676
1.681
1.681
1.667
1.662
1.672
1.681
1.667
1.657
1.662
1.672
1.662
1.647
1.652
1.672
1.672
1.662
1.681
1.706
1.711
1.706
1.701
1.701
1.691
1.662
1.652
1.662
1.662
1.657
1.662
1.681
1.696
1.686
1.681
1.691
1.701
1.691
1.681
1.686
1.696
1.686
1.667
1.667
1.681
1.681
1.676
1.672
1.681
1.681
1.667
1.672
1.681
1.681
1.676
1.672
1.686
1.701
1.696
1.696
1.711
1.716
1.706
1.686
1.686
1.701
1.691
1.681
1.691
1.716
1.73
1.735
1.74
1.75
1.745
1.725
1.72
1.73
1.725
1.711
1.701
1.701
1.701
1.686
1.676
1.696
1.711
1.706
1.701
1.701
1.716
1.706
1.686
1.686
1.686
1.672
1.657
1.657
1.676
1.686
1.672
1.676
1.686
1.686
1.676
1.667
1.672
1.686
1.681
1.672
1.691
1.706
1.711
1.696
1.686
1.691
1.676
1.657
1.662
1.676
1.681
1.676
1.686
1.711
1.72
1.716
1.73
1.769
1.813
1.848
1.887
1.935
1.984
2.004
2.019
2.023
2.019
1.979
1.926
1.867
1.823
1.764
1.701
1.667
1.647
1.628
1.608
1.593
1.608
1.623
1.623
1.632
1.657
1.667
1.676
1.686
1.696
1.701
1.681
1.662
1.662
1.667
1.667
1.657
1.672
1.691
1.696
1.691
1.706
1.716
1.706
1.686
1.676
1.676
1.672
1.642
1.642
1.662
1.681
1.686
1.686
1.711
1.73
1.716
1.706
1.711
1.716
1.701
1.681
1.676
1.686
1.681
1.672
1.681
1.701
1.696
1.691
1.701
1.72
1.725
1.711
1.711
1.73
1.735
1.725
1.711
1.72
1.725
1.716
1.711
1.725
1.74
1.74
1.735
1.745
1.764
1.755
1.735
1.73
1.725
1.716
1.706
1.716
1.74
1.745
1.735
1.735
1.755
1.769
1.769
1.76
1.76
1.769
1.755
1.75
1.764
1.764
1.755
1.745
1.75
1.769
1.769
1.769
1.789
1.813
1.818
1.808
1.794
1.794
1.779
1.755
1.745
1.76
1.774
1.774
1.769
1.774
1.779
1.76
1.745
1.745
1.74
1.73
1.725
1.74
1.764
1.76
1.745
1.74
1.74
1.72
1.696
1.676
1.676
1.667
1.652
1.652
1.676
1.691
1.686
1.676
1.681
1.691
1.676
1.667
1.672
1.672
1.662
1.652
1.662
1.676
1.676
1.657
1.657
1.667
1.667
1.652
1.642
1.657
1.662
1.647
1.647
1.662
1.672
1.672
1.672
1.681
1.691
1.676
1.667
1.672
1.676
1.667
1.657
1.662
1.672
1.672
1.662
1.667
1.681
1.686
1.676
1.672
1.676
1.676
1.662
1.667
1.691
1.701
1.696
1.686
1.691
1.696
1.676
1.657
1.662
1.672
1.672
1.672
1.681
1.701
1.696
1.681
1.676
1.681
1.667
1.657
1.652
1.667
1.676
1.672
1.676
1.691
1.696
1.681
1.676
1.681
1.691
1.681
1.672
1.691
1.701
1.701
1.691
1.681
1.691
1.676
1.657
1.662
1.676
1.672
1.667
1.662
1.672
1.672
1.652
1.647
1.662
1.672
1.667
1.657
1.667
1.676
1.672
1.672
1.676
1.676
1.667
1.662
1.676
1.706
1.716
1.711
1.716
1.725
1.72
1.711
1.701
1.706
1.701
1.681
1.681
1.706
1.72
1.73
1.73
1.74
1.75
1.73
1.716
1.716
1.716
1.706
1.691
1.691
1.706
1.701
1.681
1.691
1.706
1.706
1.696
1.681
1.676
1.662
1.642
1.647
1.667
1.681
1.676
1.681
1.696
1.706
1.696
1.676
1.672
1.667
1.652
1.637
1.647
1.667
1.672
1.667
1.676
1.691
1.686
1.676
1.672
1.681
1.676
1.657
1.657
1.672
1.681
1.681
1.676
1.686
1.701
1.701
1.711
1.755
1.794
1.828
1.852
1.891
1.94
1.97
1.984
1.994
1.994
1.96
1.916
1.872
1.838
1.789
1.72
1.667
1.637
1.618
1.598
1.588
1.598
1.603
1.593
1.584
1.603
1.628
1.637
1.637
1.647
1.672
1.676
1.672
1.681
1.696
1.696
1.686
1.681
1.691
1.696
1.672
1.667
1.672
1.672
1.662
1.647
1.642
1.642
1.623
1.618
1.642
1.662
1.672
1.672
1.686
1.706
1.716
1.706
1.701
1.701
1.691
1.676
1.676
1.691
1.701
1.686
1.686
1.696
1.696
1.681
1.676
1.686
1.696
1.686
1.681
1.696
1.711
1.711
1.701
1.701
1.706
1.691
1.672
1.676
1.691
1.696
1.691
1.696
1.716
1.72
1.711
1.72
1.74
1.75
1.75
1.745
1.76
1.774
1.755
1.74
1.745
1.75
1.74
1.73
1.735
1.76
1.76
1.755
1.755
1.769
1.764
1.755
1.75
1.755
1.76
1.745
1.75
1.774
1.784
1.779
1.764
1.764
1.769
1.76
1.755
1.764
1.779
1.779
1.779
1.784
1.789
1.764
1.73
1.716
1.711
1.701
1.691
1.696
1.711
1.72
1.701
1.701
1.711
1.706
1.681
1.657
1.652
1.657
1.647
1.637
1.652
1.657
1.657
1.647
1.657
1.672
1.672
1.657
1.652
1.657
1.647
1.637
1.632
1.647
1.657
1.647
1.652
1.672
1.676
1.662
1.642
1.642
1.642
1.632
1.623
1.642
1.657
1.662
1.657
1.667
1.672
1.657
1.632
1.623
1.623
1.603
1.593
1.603
1.628
1.652
1.657
1.672
1.701
1.716
1.696
1.676
1.667
1.657
1.628
1.608
1.623
1.642
1.647
1.647
1.652
1.667
1.657
1.637
1.642
1.657
1.667
1.662
1.667
1.681
1.686
1.667
1.652
1.657
1.662
1.657
1.657
1.667
1.676
1.667
1.662
1.672
1.676
1.672
1.652
1.647
1.652
1.652
1.637
1.642
1.647
1.637
1.628
1.632
1.652
1.662
1.647
1.647
1.667
1.676
1.667
1.657
1.662
1.662
1.642
1.628
1.642
1.657
1.657
1.652
1.657
1.672
1.667
1.652
1.652
1.662
1.662
1.657
1.662
1.676
1.686
1.672
1.672
1.686
1.686
1.676
1.667
1.672
1.681
1.676
1.672
1.681
1.691
1.686
1.672
1.676
1.686
1.676
1.662
1.672
1.691
1.696
1.691
1.686
1.696
1.696
1.681
1.676
1.686
1.696
1.701
1.701
1.711
1.716
1.696
1.681
1.686
1.691
1.681
1.672
1.672
1.686
1.681
1.662
1.662
1.672
1.662
1.647
1.637
1.652
1.662
1.642
1.642
1.657
1.662
1.657
1.647
1.652
1.667
1.652
1.642
1.657
1.672
1.667
1.667
1.672
1.686
1.681
1.667
1.662
1.667
1.657
1.642
1.647
1.676
1.706
1.716
1.745
1.804
1.852
1.882
1.906
1.945
1.975
1.979
1.97
1.965
1.945
1.901
1.848
1.794
1.745
1.681
1.618
1.598
1.593
1.593
1.584
1.584
1.603
1.618
1.613
1.623
1.642
1.652
1.652
1.657
1.676
1.686
1.667
1.642
1.642
1.652
1.652
1.647
1.652
1.672
1.676
1.667
1.672
1.681
1.672
1.647
1.632
1.642
1.647
1.632
1.632
1.652
1.662
1.652
1.642
1.647
1.657
1.652
1.652
1.667
1.676
1.681
1.676
1.681
1.701
1.701
1.676
1.676
1.686
1.676
1.667
1.662
1.672
1.672
1.657
1.657
1.676
1.691
1.696
1.696
1.711
1.73
1.725
1.72
1.73
1.74
1.73
1.716
1.706
1.706
1.696
1.681
1.686
1.706
1.711
1.711
1.711
1.73
1.74
1.725
1.725
1.745
1.755
1.75
1.745
1.745
1.75
1.735
1.72
1.725
1.735
1.73
1.725
1.735
1.75
1.75
1.735
1.735
1.755
1.76
1.755
1.75
1.76
1.76
1.745
1.74
1.75
1.75
1.74
1.735
1.74
1.75
1.735
1.72
1.725
1.73
1.711
1.691
1.681
1.691
1.681
1.667
1.672
1.686
1.681
1.672
1.672
1.686
1.691
1.672
1.657
1.662
1.662
1.652
1.642
1.647
1.652
1.632
1.618
1.623
1.628
1.623
1.618
1.618
1.632
1.637
1.623
1.632
1.647
1.647
1.642
1.637
1.642
1.647
1.632
1.628
1.637
1.637
1.632
1.632
1.642
1.662
1.652
1.642
1.642
1.652
1.647
1.647
1.647
1.667
1.672
1.662
1.657
1.657
1.642
1.623
1.613
1.623
1.637
1.632
1.637
1.662
1.676
1.681
1.681
1.681
1.681
1.662
1.647
1.647
1.657
1.652
1.642
1.637
1.647
1.637
1.623
1.628
1.647
1.652
1.642
1.637
1.647
1.652
1.637
1.632
1.642
1.652
1.647
1.637
1.647
1.662
1.652
1.647
1.667
1.681
1.676
1.667
1.662
1.667
1.657
1.632
1.632
1.647
1.647
1.642
1.647
1.667
1.676
1.657
1.647
1.652
1.652
1.637
1.632
1.642
1.662
1.662
1.662
1.676
1.691
1.686
1.672
1.667
1.672
1.657
1.632
1.632
1.647
1.647
1.647
1.652
1.676
1.686
1.676
1.672
1.686
1.691
1.681
1.672
1.672
1.681
1.672
1.672
1.686
1.706
1.701
1.696
1.696
1.711
1.711
1.691
1.691
1.696
1.691
1.676
1.667
1.676
1.681
1.667
1.672
1.686
1.691
1.676
1.662
1.657
1.657
1.637
1.623
1.628
1.642
1.642
1.632
1.632
1.642
1.642
1.632
1.637
1.657
1.662
1.667
1.672
1.691
1.691
1.662
1.647
1.652
1.652
1.647
1.642
1.652
1.672
1.662
1.652
1.662
1.676
1.676
1.681
1.706
1.745
1.779
1.794
1.833
1.882
1.916
1.935
1.96
1.984
1.994
1.965
1.931
1.896
1.848
1.779
1.711
1.662
1.628
1.588
1.564
1.569
1.584
1.593
1.588
1.588
1.603
1.603
1.598
1.613
1.637
1.647
1.647
1.652
1.667
1.676
1.652
1.637
1.637
1.637
1.632
1.628
1.632
1.647
1.632
1.628
1.642
1.662
1.667
1.662
1.667
1.676
1.672
1.647
1.642
1.652
1.647
1.642
1.647
1.662
1.676
1.667
1.672
1.691
1.701
1.691
1.672
1.657
1.667
1.657
1.647
1.662
1.676
1.676
1.676
1.681
1.696
1.696
1.681
1.681
1.696
1.696
1.686
1.676
1.681
1.681
1.662
1.657
1.667
1.681
1.686
1.691
1.716
1.735
1.73
1.72
1.72
1.72
1.716
1.711
1.72
1.74
1.745
1.74
1.75
1.764
1.755
1.74
1.725
1.73
1.74
1.73
1.735
1.76
1.784
1.784
1.779
1.784
1.784
1.76
1.735
1.735
1.74
1.73
1.72
1.725
1.75
1.764
1.755
1.764
1.784
1.784
1.764
1.745
1.735
1.725
1.696
1.686
1.691
1.696
1.686
1.681
1.686
1.701
1.681
1.652
1.647
1.657
1.652
1.647
1.657
1.676
1.676
1.667
1.667
1.672
1.662
1.642
1.632
1.637
1.637
1.623
1.618
1.637
1.652
1.652
1.652
1.662
1.672
1.662
1.647
1.657
1.667
1.652
1.637
1.637
1.647
1.642
1.628
1.623
1.637
1.632
1.623
1.618
1.628
1.632
1.628
1.632
1.647
1.662
1.662
1.657
1.667
1.681
1.672
1.662
1.667
1.672
1.657
1.642
1.637
1.647
1.647
1.628
1.628
1.632
1.637
1.642
1.647
1.667
1.686
1.676
1.681
1.696
1.706
1.691
1.681
1.681
1.686
1.667
1.647
1.652
1.657
1.657
1.652
1.662
1.676
1.676
1.662
1.657
1.672
1.667
1.652
1.637
1.637
1.637
1.623
1.628
1.652
1.667
1.672
1.667
1.672
1.681
1.672
1.662
1.672
1.681
1.672
1.657
1.657
1.672
1.672
1.652
1.647
1.657
1.662
1.652
1.647
1.657
1.672
1.657
1.657
1.672
1.686
1.681
1.676
1.681
1.691
1.676
1.662
1.672
1.672
1.657
1.647
1.657
1.681
1.686
1.672
1.676
1.691
1.696
1.686
1.686
1.696
1.706
1.686
1.681
1.701
1.706
1.701
1.696
1.696
1.701
1.681
1.672
1.686
1.716
1.72
1.72
1.72
1.735
1.73
1.696
1.681
1.681
1.681
1.676
1.676
1.686
1.701
1.691
1.691
1.696
1.696
1.672
1.657
1.657
1.662
1.657
1.652
1.662
1.672
1.672
1.676
1.686
1.696
1.691
1.667
1.657
1.662
1.657
1.642
1.637
1.652
1.667
1.662
1.667
1.686
1.696
1.691
1.681
1.686
1.706
1.711
1.73
1.779
1.833
1.872
1.901
1.94
1.984
2.014
2.014
2.014
2.009
1.984
1.935
1.887
1.848
1.799
1.73
1.672
1.642
1.623
1.603
1.584
1.584
1.593
1.598
1.603
1.632
1.662
1.676
1.676
1.681
1.696
1.701
1.676
1.667
1.672
1.667
1.652
1.637
1.642
1.652
1.637
1.637
1.652
1.667
1.667
1.672
1.686
1.706
1.696
1.686
1.686
1.691
1.676
1.667
1.672
1.696
1.701
1.686
1.691
1.701
1.701
1.691
1.686
1.691
1.696
1.686
1.681
1.701
1.716
1.711
1.701
1.696
1.701
1.691
1.676
1.691
1.711
1.72
1.716
1.72
1.73
1.725
1.706
1.701
1.706
1.706
1.701
1.706
1.72
1.725
1.706
1.706
1.725
1.735
1.73
1.73
1.75
1.784
1.784
1.774
1.774
1.779
1.764
1.75
1.745
1.755
1.75
1.735
1.74
1.76
1.774
1.769
1.764
1.769
1.779
1.769
1.769
1.784
1.794
1.789
1.784
1.789
1.804
1.789
1.769
1.769
1.769
1.76
1.75
1.745
1.76
1.76
1.74
1.735
1.74
1.735
1.725
1.711
1.716
1.725
1.711
1.701
1.711
1.72
1.711
1.701
1.696
1.701
1.686
1.672
1.676
1.681
1.672
1.657
1.647
1.652
1.652
1.642
1.647
1.667
1.667
1.657
1.652
1.657
1.662
1.637
1.628
1.632
1.642
1.637
1.642
1.652
1.667
1.657
1.652
1.662
1.676
1.676
1.662
1.662
1.672
1.672
1.652
1.657
1.676
1.676
1.667
1.662
1.667
1.681
1.667
1.657
1.657
1.662
1.652
1.647
1.652
1.667
1.657
1.647
1.657
1.672
1.676
1.672
1.672
1.681
1.681
1.657
1.652
1.667
1.672
1.667
1.667
1.681
1.686
1.672
1.662
1.667
1.667
1.657
1.642
1.647
1.662
1.667
1.662
1.676
1.696
1.701
1.701
1.706
1.72
1.72
1.696
1.681
1.681
1.676
1.657
1.642
1.652
1.657
1.647
1.642
1.667
1.686
1.691
1.691
1.696
1.711
1.701
1.681
1.676
1.676
1.657
1.642
1.632
1.637
1.637
1.623
1.628
1.652
1.667
1.667
1.667
1.681
1.701
1.696
1.691
1.706
1.716
1.711
1.706
1.701
1.701
1.676
1.652
1.652
1.672
1.676
1.681
1.691
1.711
1.716
1.696
1.691
1.696
1.691
1.676
1.667
1.667
1.662
1.647
1.647
1.676
1.701
1.701
1.701
1.716
1.735
1.735
1.725
1.735
1.74
1.725
1.701
1.686
1.691
1.696
1.691
1.696
1.716
1.72
1.711
1.706
1.72
1.73
1.711
1.696
1.701
1.701
1.696
1.686
1.691
1.701
1.686
1.672
1.672
1.676
1.667
1.652
1.647
1.662
1.662
1.652
1.657
1.681
1.696
1.696
1.686
1.686
1.676
1.647
1.628
1.632
1.647
1.647
1.647
1.662
1.686
1.696
1.696
1.711
1.725
1.73
1.74
1.764
1.818
1.857
1.877
1.916
1.97
2.009
2.033
2.048
2.053
2.033
1.979
1.916
1.867
1.804
1.725
1.657
1.618
1.598
1.574
1.559
1.569
1.593
1.608
1.618
1.642
1.676
1.686
1.672
1.672
1.681
1.686
1.676
1.667
1.676
1.686
1.681
1.681
1.706
1.72
1.711
1.696
1.686
1.681
1.667
1.647
1.647
1.652
1.652
1.652
1.667
1.691
1.701
1.691
1.691
1.706
1.706
1.696
1.686
1.686
1.691
1.672
1.667
1.686
1.696
1.696
1.686
1.691
1.706
1.706
1.696
1.701
1.72
1.716
1.706
1.706
1.72
1.725
1.716
1.72
1.74
1.745
1.735
1.725
1.72
1.72
1.706
1.696
1.711
1.725
1.725
1.73
1.74
1.76
1.76
1.74
1.745
1.755
1.755
1.745
1.75
1.769
1.779
1.769
1.769
1.779
1.784
1.784
1.779
1.784
1.784
1.774
1.774
1.794
1.804
1.794
1.774
1.769
1.774
1.769
1.755
1.75
1.76
1.76
1.76
1.769
1.794
1.799
1.784
1.774
1.779
1.774
1.764
1.76
1.774
1.784
1.76
1.74
1.735
1.735
1.72
1.711
1.716
1.725
1.72
1.701
1.706
1.711
1.706
1.686
1.681
1.686
1.686
1.667
1.657
1.662
1.667
1.657
1.652
1.657
1.667
1.657
1.652
1.667
1.681
1.681
1.672
1.667
1.667
1.657
1.647
1.647
1.652
1.642
1.632
1.632
1.652
1.667
1.657
1.662
1.676
1.681
1.676
1.672
1.676
1.681
1.672
1.667
1.681
1.691
1.686
1.681
1.681
1.691
1.686
1.672
1.676
1.691
1.696
1.691
1.691
1.701
1.701
1.676
1.667
1.662
1.652
1.637
1.632
1.647
1.667
1.672
1.681
1.706
1.72
1.716
1.696
1.681
1.681
1.662
1.642
1.652
1.672
1.681
1.676
1.676
1.691
1.696
1.676
1.672
1.681
1.676
1.662
1.652
1.657
1.662
1.647
1.637
1.652
1.667
1.667
1.662
1.667
1.686
1.686
1.672
1.686
1.701
1.706
1.701
1.701
1.711
1.711
1.686
1.681
1.686
1.681
1.672
1.672
1.686
1.701
1.686
1.672
1.676
1.686
1.681
1.676
1.676
1.686
1.676
1.667
1.676
1.691
1.691
1.686
1.686
1.701
1.706
1.681
1.681
1.691
1.686
1.667
1.652
1.657
1.667
1.662
1.662
1.691
1.72
1.73
1.735
1.735
1.74
1.73
1.706
1.706
1.711
1.706
1.696
1.696
1.72
1.74
1.735
1.735
1.745
1.74
1.72
1.706
1.706
1.706
1.686
1.672
1.686
1.701
1.701
1.701
1.701
1.706
1.691
1.662
1.667
1.676
1.686
1.681
1.676
1.681
1.676
1.657
1.647
1.652
1.652
1.647
1.652
1.667
1.686
1.686
1.691
1.706
1.716
1.701
1.691
1.686
1.691
1.676
1.667
1.681
1.711
1.725
1.735
1.76
1.813
1.862
1.882
1.916
1.955
1.984
2.004
2.014
2.014
1.999
1.945
1.887
1.843
1.794
1.725
1.657
1.618
1.608
1.588
1.574
1.588
1.618
1.637
1.647
1.647
1.662
1.667
1.652
1.652
1.672
1.686
1.691
1.681
1.691
1.701
1.686
1.672
1.676
1.681
1.672
1.662
1.667
1.686
1.691
1.686
1.691
1.701
1.701
1.691
1.696
1.711
1.716
1.696
1.691
1.696
1.701
1.691
1.681
1.681
1.686
1.672
1.662
1.676
1.691
1.696
1.696
1.706
1.72
1.711
1.686
1.691
1.711
1.725
1.735
1.74
1.755
1.755
1.735
1.73
1.735
1.73
1.716
1.711
1.725
1.745
1.75
1.75
1.764
1.779
1.764
1.745
1.73
1.735
1.725
1.706
1.72
1.74
1.745
1.745
1.745
1.764
1.774
1.76
1.745
1.745
1.755
1.755
1.76
1.779
1.804
1.808
1.799
1.804
1.804
1.794
1.779
1.774
1.779
1.774
1.76
1.774
1.799
1.804
1.794
1.789
1.799
1.804
1.789
1.779
1.784
1.774
1.76
1.745
1.745
1.745
1.72
1.701
1.706
1.716
1.72
1.711
1.706
1.711
1.711
1.696
1.696
1.696
1.676
1.657
1.642
1.652
1.657
1.637
1.637
1.657
1.672
1.672
1.672
1.681
1.691
1.676
1.667
1.667
1.672
1.647
1.623
1.618
1.632
1.637
1.628
1.637
1.662
1.672
1.672
1.672
1.686
1.681
1.652
1.642
1.647
1.657
1.657
1.657
1.667
1.676
1.657
1.637
1.647
1.657
1.652
1.647
1.652
1.672
1.672
1.657
1.657
1.676
1.676
1.672
1.667
1.676
1.681
1.662
1.657
1.672
1.681
1.676
1.667
1.672
1.681
1.672
1.667
1.681
1.686
1.676
1.662
1.662
1.672
1.672
1.662
1.667
1.681
1.686
1.676
1.667
1.667
1.662
1.632
1.618
1.637
1.652
1.652
1.652
1.662
1.676
1.667
1.657
1.667
1.676
1.667
1.647
1.652
1.672
1.676
1.662
1.662
1.676
1.686
1.676
1.667
1.676
1.681
1.667
1.662
1.672
1.676
1.667
1.657
1.667
1.681
1.676
1.667
1.672
1.676
1.672
1.657
1.657
1.662
1.662
1.657
1.667
1.691
1.696
1.686
1.686
1.696
1.706
1.686
1.676
1.686
1.696
1.691
1.681
1.686
1.701
1.691
1.686
1.701
1.72
1.725
1.725
1.73
1.745
1.735
1.706
1.696
1.701
1.696
1.672
1.657
1.672
1.686
1.676
1.681
1.701
1.711
1.711
1.706
1.706
1.711
1.686
1.662
1.657
1.662
1.652
1.642
1.652
1.667
1.667
1.652
1.652
1.672
1.676
1.676
1.672
1.681
1.691
1.676
1.672
1.681
1.691
1.681
1.676
1.681
1.686
1.672
1.652
1.657
1.662
1.657
1.657
1.676
1.72
1.755
1.784
1.833
1.891
1.931
1.955
1.97
1.989
1.989
1.955
1.916
1.882
1.848
1.794
1.745
1.706
1.676
1.642
1.618
1.618
1.628
1.618
1.603
1.603
1.623
1.628
1.613
1.618
1.637
1.647
1.642
1.647
1.667
1.681
1.667
1.657
1.676
1.691
1.686
1.681
1.686
1.696
1.686
1.676
1.681
1.691
1.681
1.667
1.657
1.662
1.662
1.642
1.647
1.672
1.681
1.676
1.676
1.686
1.696
1.681
1.676
1.691
1.701
1.696
1.691
1.701
1.716
1.706
1.686
1.676
1.681
1.672
1.657
1.657
1.676
1.686
1.676
1.686
1.706
1.711
1.711
1.711
1.725
1.735
1.72
1.72
1.735
1.745
1.74
1.73
1.73
1.735
1.72
1.706
1.711
1.73
1.73
1.72
1.72
1.745
1.755
1.745
1.75
1.76
1.764
1.76
1.75
1.755
1.75
1.72
1.711
1.725
1.74
1.745
1.75
1.769
1.799
1.794
1.784
1.779
1.789
1.779
1.769
1.76
1.769
1.779
1.774
1.779
1.794
1.794
1.784
1.774
1.774
1.774
1.75
1.73
1.73
1.725
1.706
1.686
1.676
1.676
1.657
1.637
1.642
1.652
1.647
1.642
1.652
1.667
1.672
1.652
1.652
1.667
1.667
1.657
1.647
1.647
1.647
1.632
1.628
1.632
1.637
1.637
1.632
1.642
1.662
1.662
1.652
1.662
1.672
1.667
1.652
1.642
1.647
1.642
1.628
1.628
1.647
1.657
1.652
1.657
1.672
1.681
1.667
1.652
1.667
1.672
1.662
1.647
1.647
1.652
1.647
1.637
1.652
1.667
1.667
1.657
1.657
1.667
1.662
1.642
1.637
1.647
1.647
1.647
1.652
1.667
1.676
1.667
1.657
1.662
1.667
1.657
1.657
1.672
1.691
1.681
1.667
1.667
1.672
1.667
1.647
1.642
1.652
1.662
1.657
1.657
1.672
1.672
1.667
1.662
1.672
1.672
1.647
1.628
1.623
1.618
1.613
1.608
1.628
1.652
1.657
1.657
1.672
1.691
1.696
1.681
1.667
1.667
1.657
1.632
1.637
1.657
1.662
1.647
1.637
1.637
1.652
1.647
1.647
1.662
1.676
1.676
1.672
1.686
1.691
1.681
1.657
1.662
1.662
1.657
1.642
1.637
1.642
1.647
1.632
1.637
1.652
1.672
1.676
1.681
1.691
1.701
1.686
1.676
1.681
1.681
1.662
1.647
1.657
1.681
1.691
1.686
1.706
1.725
1.725
1.711
1.701
1.701
1.691
1.667
1.657
1.667
1.672
1.672
1.676
1.691
1.701
1.691
1.676
1.676
1.676
1.662
1.637
1.628
1.628
1.618
1.608
1.623
1.647
1.662
1.667
1.672
1.686
1.686
1.662
1.647
1.652
1.647
1.632
1.623
1.632
1.652
1.652
1.652
1.672
1.691
1.691
1.686
1.686
1.696
1.691
1.686
1.701
1.725
1.745
1.769
1.808
1.862
1.901
1.921
1.945
1.979
1.994
1.975
1.94
1.906
1.867
1.794
1.725
1.686
1.652
1.613
1.584
1.579
1.593
1.598
1.593
1.608
1.623
1.628
1.628
1.637
1.657
1.662
1.637
1.632
1.652
1.662
1.657
1.647
1.657
1.667
1.652
1.647
1.667
1.681
1.672
1.657
1.657
1.672
1.667
1.657
1.657
1.672
1.667
1.652
1.637
1.647
1.652
1.637
1.642
1.662
1.676
1.681
1.686
1.701
1.711
1.691
1.676
1.676
1.676
1.662
1.647
1.642
1.657
1.662
1.657
1.667
1.676
1.672
1.662
1.662
1.676
1.686
1.676
1.676
1.701
1.72
1.725
1.725
1.73
1.73
1.706
1.691
1.691
1.696
1.691
1.686
1.696
1.716
1.716
1.706
1.72
1.74
1.735
1.72
1.716
1.73
1.74
1.725
1.725
1.74
1.755
1.75
1.74
1.74
1.745
1.73
1.72
1.74
1.76
1.764
1.76
1.774
1.794
1.799
1.779
1.779
1.774
1.76
1.735
1.72
1.725
1.73
1.72
1.725
1.745
1.75
1.745
1.74
1.74
1.74
1.711
1.686
1.691
1.696
1.691
1.676
1.676
1.686
1.681
1.662
1.652
1.652
1.642
1.632
1.623
1.632
1.632
1.618
1.613
1.628
1.637
1.637
1.637
1.647
1.657
1.637
1.618
1.613
1.613
1.608
1.603
1.618
1.647
1.667
1.662
1.672
1.681
1.672
1.657
1.642
1.642
1.642
1.628
1.628
1.647
1.657
1.652
1.642
1.647
1.657
1.647
1.637
1.647
1.662
1.662
1.652
1.647
1.657
1.657
1.652
1.657
1.676
1.681
1.672
1.667
1.667
1.662
1.637
1.628
1.642
1.647
1.642
1.637
1.647
1.662
1.652
1.637
1.642
1.652
1.647
1.637
1.642
1.657
1.662
1.662
1.672
1.686
1.681
1.662
1.657
1.672
1.672
1.642
1.628
1.637
1.647
1.642
1.632
1.637
1.652
1.642
1.632
1.647
1.667
1.672
1.672
1.676
1.691
1.686
1.667
1.667
1.676
1.676
1.667
1.657
1.667
1.667
1.647
1.637
1.647
1.642
1.637
1.628
1.642
1.657
1.657
1.652
1.667
1.686
1.686
1.681
1.672
1.667
1.652
1.632
1.637
1.657
1.657
1.657
1.662
1.681
1.696
1.691
1.696
1.711
1.716
1.706
1.696
1.691
1.691
1.672
1.652
1.662
1.672
1.681
1.691
1.706
1.725
1.725
1.706
1.701
1.701
1.686
1.667
1.662
1.667
1.672
1.657
1.657
1.672
1.672
1.652
1.642
1.647
1.657
1.652
1.647
1.662
1.672
1.662
1.647
1.647
1.657
1.652
1.637
1.642
1.662
1.667
1.657
1.652
1.657
1.662
1.647
1.642
1.657
1.672
1.667
1.667
1.681
1.696
1.681
1.676
1.696
1.725
1.75
1.774
1.818
1.867
1.906
1.935
1.979
2.019
2.028
2.009
1.979
1.95
1.901
1.823
1.755
1.701
1.652
1.603
1.574
1.569
1.579
1.564
1.564
1.588
1.603
1.603
1.603
1.618
1.642
1.652
1.642
1.647
1.667
1.676
1.672
1.667
1.672
1.676
1.667
1.667
1.681
1.686
1.686
1.672
1.667
1.662
1.637
1.613
1.623
1.632
1.632
1.632
1.642
1.667
1.681
1.681
1.691
1.706
1.711
1.701
1.691
1.691
1.681
1.652
1.632
1.632
1.637
1.637
1.642
1.672
1.696
1.691
1.681
1.691
1.701
1.696
1.681
1.676
1.686
1.686
1.676
1.691
1.72
1.725
1.72
1.716
1.725
1.725
1.701
1.691
1.706
1.711
1.706
1.706
1.72
1.74
1.73
1.725
1.725
1.73
1.725
1.72
1.73
1.75
1.76
1.75
1.755
1.769
1.774
1.76
1.745
1.75
1.76
1.75
1.75
1.76
1.769
1.764
1.755
1.76
1.769
1.755
1.74
1.745
1.75
1.74
1.725
1.725
1.735
1.74
1.725
1.725
1.74
1.745
1.735
1.73
1.735
1.735
1.72
1.711
1.72
1.725
1.711
1.696
1.691
1.691
1.672
1.657
1.662
1.676
1.676
1.667
1.662
1.667
1.657
1.632
1.628
1.642
1.642
1.628
1.623
1.628
1.632
1.623
1.623
1.632
1.637
1.632
1.628
1.637
1.647
1.637
1.623
1.628
1.637
1.632
1.628
1.637
1.657
1.657
1.642
1.642
1.647
1.642
1.628
1.623
1.632
1.647
1.632
1.637
1.662
1.686
1.691
1.681
1.681
1.686
1.672
1.652
1.652
1.657
1.642
1.628
1.623
1.637
1.637
1.628
1.637
1.657
1.667
1.667
1.667
1.686
1.691
1.667
1.642
1.642
1.642
1.632
1.632
1.647
1.667
1.672
1.662
1.672
1.681
1.676
1.662
1.657
1.667
1.662
1.642
1.647
1.662
1.667
1.662
1.657
1.672
1.681
1.672
1.667
1.672
1.672
1.662
1.642
1.642
1.652
1.647
1.632
1.642
1.652
1.647
1.637
1.637
1.657
1.662
1.657
1.667
1.681
1.686
1.676
1.667
1.672
1.667
1.642
1.637
1.652
1.672
1.681
1.681
1.691
1.701
1.681
1.662
1.667
1.676
1.672
1.667
1.672
1.686
1.691
1.672
1.676
1.691
1.696
1.681
1.672
1.672
1.676
1.662
1.662
1.681
1.696
1.696
1.691
1.701
1.72
1.725
1.72
1.73
1.74
1.725
1.706
1.696
1.701
1.696
1.672
1.667
1.676
1.686
1.686
1.686
1.701
1.706
1.681
1.667
1.672
1.676
1.667
1.657
1.662
1.672
1.662
1.642
1.652
1.662
1.647
1.637
1.637
1.652
1.657
1.647
1.647
1.662
1.662
1.652
1.642
1.657
1.662
1.657
1.667
1.691
1.706
1.701
1.691
1.701
1.72
1.72
1.716
1.74
1.784
1.823
1.862
1.911
1.965
2.004
2.019
2.033
2.048
2.023
1.975
1.921
1.872
1.813
1.73
1.657
1.618
1.584
1.549
1.53
1.535
1.564
1.584
1.593
1.628
1.657
1.672
1.667
1.662
1.672
1.662
1.642
1.632
1.647
1.647
1.647
1.647
1.667
1.681
1.676
1.667
1.676
1.676
1.662
1.652
1.652
1.667
1.662
1.642
1.657
1.676
1.676
1.676
1.681
1.691
1.681
1.652
1.642
1.657
1.667
1.667
1.667
1.681
1.706
1.701
1.701
1.716
1.72
1.706
1.681
1.672
1.676
1.667
1.662
1.681
1.716
1.73
1.73
1.73
1.74
1.735
1.711
1.696
1.696
1.691
1.681
1.681
1.691
1.706
1.706
1.701
1.716
1.725
1.725
1.73
1.745
1.764
1.76
1.745
1.75
1.769
1.769
1.764
1.76
1.769
1.769
1.75
1.75
1.764
1.769
1.755
1.745
1.755
1.764
1.76
1.755
1.764
1.774
1.774
1.764
1.769
1.789
1.784
1.769
1.784
1.804
1.799
1.789
1.779
1.784
1.774
1.745
1.735
1.74
1.74
1.73
1.72
1.72
1.72
1.701
1.686
1.691
1.696
1.686
1.676
1.681
1.696
1.686
1.672
1.676
1.681
1.676
1.667
1.662
1.672
1.672
1.657
1.652
1.662
1.657
1.647
1.637
1.642
1.652
1.637
1.623
1.637
1.647
1.647
1.647
1.657
1.672
1.667
1.657
1.662
1.676
1.676
1.662
1.652
1.657
1.657
1.637
1.628
1.642
1.652
1.657
1.662
1.676
1.691
1.681
1.672
1.681
1.696
1.696
1.681
1.672
1.676
1.672
1.667
1.672
1.681
1.676
1.662
1.662
1.676
1.686
1.676
1.672
1.681
1.686
1.681
1.676
1.686
1.706
1.701
1.691
1.691
1.691
1.676
1.662
1.657
1.672
1.667
1.652
1.657
1.672
1.681
1.676
1.672
1.681
1.686
1.667
1.662
1.672
1.676
1.672
1.667
1.676
1.686
1.676
1.676
1.696
1.706
1.701
1.691
1.686
1.686
1.667
1.637
1.632
1.642
1.647
1.647
1.657
1.681
1.696
1.681
1.676
1.691
1.696
1.681
1.667
1.662
1.672
1.657
1.652
1.667
1.681
1.676
1.667
1.662
1.672
1.667
1.657
1.652
1.662
1.657
1.662
1.672
1.696
1.711
1.701
1.701
1.716
1.72
1.706
1.691
1.691
1.696
1.676
1.662
1.667
1.681
1.681
1.686
1.696
1.72
1.725
1.716
1.725
1.745
1.75
1.74
1.73
1.73
1.73
1.711
1.701
1.711
1.711
1.696
1.686
1.691
1.696
1.681
1.676
1.691
1.701
1.691
1.681
1.686
1.706
1.701
1.686
1.686
1.696
1.686
1.667
1.652
1.657
1.657
1.647
1.642
1.662
1.676
1.681
1.681
1.696
1.701
1.681
1.667
1.667
1.667
1.662
1.657
1.667
1.686
1.686
1.676
1.681
1.696
1.696
1.691
1.701
1.725
1.76
1.774
1.813
1.867
1.921
1.965
1.999
2.043
2.077
2.067
2.043
2.014
1.965
1.896
1.808
1.735
1.676
1.628
1.579
1.574
1.593
1.603
1.603
1.608
1.637
1.657
1.657
1.662
1.681
1.686
1.686
1.676
1.681
1.686
1.667
1.642
1.642
1.647
1.647
1.647
1.657
1.676
1.672
1.657
1.662
1.686
1.691
1.691
1.686
1.696
1.706
1.691
1.691
1.696
1.696
1.686
1.672
1.672
1.681
1.672
1.672
1.691
1.711
1.711
1.706
1.711
1.73
1.72
1.696
1.686
1.686
1.681
1.667
1.672
1.691
1.706
1.706
1.72
1.745
1.76
1.76
1.75
1.75
1.75
1.725
1.706
1.701
1.706
1.696
1.686
1.696
1.72
1.73
1.73
1.74
1.76
1.769
1.764
1.76
1.76
1.75
1.73
1.725
1.75
1.764
1.764
1.76
1.769
1.779
1.769
1.76
1.774
1.784
1.784
1.779
1.784
1.799
1.799
1.779
1.779
1.789
1.789
1.784
1.779
1.789
1.794
1.779
1.779
1.794
1.799
1.789
1.779
1.779
1.794
1.779
1.755
1.75
1.745
1.73
1.711
1.711
1.72
1.716
1.686
1.681
1.696
1.696
1.686
1.681
1.691
1.691
1.672
1.667
1.667
1.657
1.642
1.632
1.642
1.662
1.657
1.657
1.676
1.701
1.701
1.681
1.667
1.662
1.647
1.628
1.628
1.647
1.647
1.642
1.642
1.662
1.681
1.672
1.667
1.676
1.676
1.667
1.657
1.667
1.681
1.667
1.657
1.667
1.681
1.686
1.681
1.681
1.691
1.686
1.667
1.667
1.676
1.672
1.652
1.642
1.657
1.667
1.652
1.647
1.662
1.676
1.676
1.676
1.691
1.701
1.691
1.676
1.686
1.686
1.676
1.667
1.667
1.681
1.676
1.662
1.662
1.681
1.696
1.696
1.696
1.701
1.701
1.681
1.676
1.686
1.696
1.686
1.672
1.676
1.691
1.686
1.672
1.676
1.681
1.672
1.667
1.676
1.691
1.686
1.662
1.662
1.681
1.681
1.672
1.672
1.686
1.696
1.681
1.686
1.706
1.72
1.711
1.696
1.691
1.701
1.681
1.662
1.672
1.686
1.681
1.672
1.672
1.681
1.676
1.657
1.652
1.662
1.667
1.672
1.681
1.701
1.711
1.696
1.691
1.696
1.696
1.676
1.662
1.667
1.681
1.686
1.691
1.711
1.73
1.735
1.725
1.73
1.74
1.735
1.716
1.716
1.73
1.725
1.716
1.706
1.711
1.716
1.701
1.696
1.711
1.72
1.711
1.701
1.701
1.706
1.691
1.667
1.662
1.667
1.652
1.637
1.632
1.647
1.657
1.657
1.672
1.691
1.706
1.706
1.706
1.716
1.711
1.686
1.676
1.681
1.681
1.662
1.642
1.647
1.667
1.662
1.647
1.657
1.672
1.686
1.696
1.72
1.75
1.774
1.784
1.818
1.867
1.901
1.921
1.945
1.975
1.989
1.975
1.955
1.945
1.916
1.872
1.818
1.774
1.73
1.672
1.623
1.613
1.613
1.608
1.603
1.608
1.628
1.637
1.637
1.652
1.676
1.696
1.691
1.691
1.701
1.711
1.691
1.676
1.676
1.667
1.642
1.628
1.632
1.642
1.642
1.632
1.642
1.662
1.672
1.676
1.691
1.706
1.706
1.686
1.681
1.696
1.696
1.686
1.681
1.691
1.696
1.681
1.676
1.691
1.701
1.696
1.686
1.691
1.706
1.691
1.681
1.691
1.706
1.701
1.686
1.681
1.696
1.701
1.691
1.701
1.72
1.725
1.725
1.72
1.735
1.735
1.711
1.696
1.706
1.72
1.711
1.706
1.72
1.75
1.75
1.74
1.745
1.75
1.74
1.73
1.73
1.75
1.755
1.745
1.755
1.769
1.769
1.755
1.745
1.755
1.764
1.755
1.755
1.769
1.784
1.779
1.774
1.784
1.794
1.779
1.76
1.769
1.784
1.784
1.774
1.769
1.779
1.779
1.76
1.76
1.774
1.779
1.769
1.764
1.769
1.774
1.755
1.74
1.74
1.735
1.72
1.716
1.716
1.72
1.711
1.701
1.706
1.706
1.691
1.667
1.652
1.647
1.637
1.613
1.613
1.632
1.647
1.647
1.642
1.647
1.647
1.628
1.618
1.628
1.632
1.623
1.618
1.632
1.647
1.642
1.628
1.632
1.647
1.647
1.642
1.647
1.667
1.672
1.657
1.657
1.667
1.667
1.657
1.642
1.642
1.642
1.628
1.628
1.647
1.657
1.652
1.647
1.652
1.662
1.652
1.632
1.642
1.652
1.657
1.657
1.662
1.681
1.686
1.672
1.672
1.681
1.672
1.647
1.628
1.632
1.642
1.637
1.632
1.652
1.662
1.662
1.662
1.667
1.676
1.667
1.642
1.637
1.647
1.642
1.637
1.637
1.652
1.662
1.647
1.652
1.667
1.667
1.652
1.637
1.647
1.657
1.642
1.637
1.652
1.667
1.667
1.662
1.672
1.681
1.662
1.642
1.652
1.672
1.672
1.662
1.662
1.681
1.676
1.657
1.642
1.647
1.652
1.652
1.657
1.672
1.686
1.676
1.662
1.667
1.667
1.657
1.647
1.657
1.667
1.662
1.642
1.647
1.657
1.652
1.637
1.628
1.637
1.642
1.637
1.642
1.662
1.667
1.657
1.652
1.667
1.681
1.672
1.672
1.686
1.696
1.686
1.676
1.672
1.686
1.676
1.662
1.667
1.691
1.696
1.696
1.696
1.716
1.72
1.706
1.701
1.716
1.72
1.711
1.696
1.691
1.681
1.652
1.628
1.637
1.652
1.657
1.662
1.681
1.706
1.72
1.711
1.711
1.711
1.686
1.652
1.637
1.637
1.637
1.618
1.628
1.647
1.657
1.652
1.647
1.657
1.662
1.647
1.642
1.657
1.672
1.676
1.672
1.681
1.691
1.676
1.652
1.647
1.647
1.637
1.628
1.628
1.642
1.657
1.652
1.667
1.696
1.711
1.716
1.725
1.755
1.789
1.804
1.833
1.887
1.945
1.989
2.009
2.019
2.019
1.975
1.916
1.867
1.818
1.75
1.681
1.628
1.603
1.584
1.554
1.549
1.564
1.574
1.584
1.593
1.618
1.642
1.642
1.647
1.667
1.676
1.667
1.652
1.642
1.642
1.632
1.613
1.623
1.637
1.642
1.647
1.662
1.676
1.676
1.657
1.647
1.657
1.662
1.657
1.647
1.652
1.667
1.667
1.667
1.681
1.686
1.676
1.667
1.667
1.676
1.676
1.672
1.681
1.696
1.691
1.676
1.667
1.676
1.676
1.662
1.662
1.676
1.686
1.691
1.701
1.725
1.745
1.73
1.716
1.711
1.706
1.691
1.676
1.672
1.672
1.667
1.657
1.672
1.691
1.706
1.701
1.711
1.725
1.725
1.711
1.706
1.716
1.716
1.706
1.706
1.725
1.75
1.75
1.755
1.769
1.779
1.774
1.76
1.75
1.75
1.74
1.73
1.745
1.769
1.779
1.779
1.779
1.789
1.789
1.769
1.764
1.779
1.779
1.764
1.764
1.774
1.779
1.76
1.745
1.74
1.735
1.72
1.711
1.72
1.735
1.735
1.72
1.725
1.735
1.735
1.73
1.716
1.711
1.696
1.662
1.652
1.662
1.662
1.647
1.632
1.637
1.642
1.628
1.618
1.623
1.632
1.632
1.632
1.647
1.676
1.676
1.662
1.662
1.667
1.652
1.632
1.618
1.618
1.618
1.603
1.603
1.623
1.632
1.632
1.628
1.642
1.657
1.642
1.637
1.647
1.662
1.662
1.657
1.657
1.667
1.657
1.632
1.632
1.637
1.637
1.632
1.637
1.657
1.672
1.662
1.652
1.657
1.657
1.642
1.632
1.632
1.637
1.632
1.628
1.642
1.667
1.672
1.672
1.676
1.686
1.676
1.662
1.662
1.672
1.667
1.657
1.647
1.652
1.657
1.642
1.642
1.657
1.662
1.657
1.652
1.657
1.667
1.652
1.642
1.657
1.676
1.676
1.667
1.672
1.686
1.686
1.667
1.672
1.681
1.672
1.662
1.657
1.667
1.672
1.657
1.652
1.657
1.652
1.642
1.632
1.642
1.657
1.652
1.652
1.672
1.686
1.681
1.672
1.672
1.681
1.672
1.637
1.623
1.628
1.628
1.623
1.632
1.652
1.667
1.662
1.672
1.696
1.706
1.696
1.672
1.662
1.662
1.652
1.642
1.652
1.662
1.657
1.657
1.667
1.691
1.696
1.686
1.686
1.701
1.696
1.681
1.676
1.676
1.667
1.637
1.623
1.632
1.647
1.652
1.662
1.681
1.691
1.676
1.667
1.672
1.672
1.662
1.652
1.662
1.676
1.676
1.662
1.672
1.696
1.711
1.716
1.725
1.745
1.76
1.75
1.75
1.755
1.745
1.72
1.691
1.672
1.672
1.657
1.652
1.667
1.681
1.686
1.681
1.681
1.696
1.691
1.676
1.676
1.681
1.681
1.667
1.657
1.662
1.662
1.642
1.632
1.642
1.637
1.628
1.623
1.632
1.652
1.652
1.647
1.657
1.672
1.676
1.672
1.676
1.691
1.686
1.672
1.676
1.691
1.696
1.686
1.681
1.696
1.696
1.681
1.691
1.73
1.769
1.799
1.833
1.882
1.926
1.955
1.979
2.023
2.048
2.043
2.014
1.975
1.935
1.877
1.794
1.72
1.657
1.598
1.564
1.549
1.564
1.584
1.584
1.598
1.628
1.647
1.647
1.642
1.652
1.667
1.657
1.647
1.657
1.667
1.662
1.647
1.647
1.667
1.672
1.662
1.672
1.696
1.706
1.701
1.691
1.686
1.676
1.647
1.642
1.662
1.676
1.681
1.691
1.701
1.706
1.691
1.676
1.672
1.662
1.647
1.637
1.652
1.691
1.706
1.701
1.706
1.716
1.701
1.676
1.657
1.657
1.657
1.642
1.647
1.676
1.696
1.706
1.711
1.725
1.735
1.72
1.706
1.716
1.725
1.72
1.706
1.701
1.706
1.701
1.681
1.681
1.691
1.696
1.691
1.706
1.73
1.75
1.75
1.755
1.774
1.779
1.764
1.75
1.75
1.76
1.745
1.73
1.74
1.76
1.755
1.74
1.735
1.75
1.745
1.73
1.73
1.75
1.755
1.755
1.76
1.779
1.784
1.764
1.76
1.769
1.784
1.784
1.769
1.769
1.774
1.76
1.745
1.745
1.745
1.725
1.706
1.701
1.716
1.716
1.696
1.696
1.706
1.701
1.676
1.657
1.662
1.672
1.662
1.657
1.672
1.681
1.676
1.672
1.672
1.672
1.652
1.632
1.632
1.642
1.647
1.642
1.647
1.657
1.647
1.628
1.618
1.618
1.613
1.603
1.603
1.618
1.632
1.628
1.637
1.662
1.672
1.662
1.647
1.637
1.632
1.613
1.593
1.598
1.613
1.618
1.623
1.642
1.662
1.662
1.632
1.618
1.628
1.632
1.637
1.647
1.667
1.686
1.676
1.672
1.681
1.686
1.672
1.652
1.652
1.657
1.652
1.642
1.657
1.676
1.676
1.667
1.657
1.667
1.662
1.647
1.642
1.657
1.652
1.632
1.618
1.628
1.642
1.642
1.652
1.672
1.686
1.691
1.686
1.686
1.681
1.657
1.637
1.642
1.647
1.642
1.642
1.647
1.662
1.657
1.632
1.628
1.642
1.647
1.647
1.652
1.676
1.696
1.686
1.686
1.691
1.686
1.672
1.652
1.647
1.657
1.642
1.632
1.637
1.657
1.657
1.652
1.647
1.652
1.642
1.628
1.647
1.672
1.681
1.681
1.686
1.706
1.716
1.686
1.667
1.662
1.657
1.642
1.632
1.647
1.667
1.667
1.672
1.691
1.701
1.691
1.672
1.662
1.672
1.672
1.657
1.652
1.672
1.672
1.662
1.662
1.672
1.672
1.652
1.642
1.642
1.647
1.637
1.637
1.657
1.681
1.686
1.686
1.706
1.725
1.72
1.711
1.701
1.706
1.701
1.676
1.667
1.672
1.667
1.662
1.662
1.681
1.691
1.686
1.691
1.716
1.73
1.73
1.716
1.716
1.725
1.716
1.696
1.706
1.725
1.725
1.72
1.72
1.725
1.725
1.711
1.706
1.716
1.706
1.681
1.672
1.681
1.686
1.667
1.657
1.662
1.672
1.662
1.652
1.657
1.662
1.642
1.628
1.642
1.672
1.681
1.676
1.672
1.676
1.676
1.662
1.662
1.667
1.667
1.657
1.657
1.676
1.696
1.686
1.676
1.686
1.696
1.686
1.681
1.691
1.716
1.716
1.716
1.74
1.789
1.828
1.867
1.906
1.97
2.019
2.048
2.077
2.087
2.067
2.019
1.95
1.882
1.813
1.72
1.642
1.593
1.569
1.549
1.549
1.564
1.598
1.613
1.618
1.642
1.672
1.676
1.672
1.667
1.676
1.676
1.657
1.652
1.652
1.647
1.637
1.637
1.647
1.657
1.647
1.642
1.657
1.676
1.681
1.676
1.681
1.696
1.696
1.691
1.701
1.711
1.696
1.681
1.676
1.681
1.676
1.657
1.652
1.662
1.657
1.652
1.657
1.676
1.691
1.686
1.691
1.711
1.72
1.711
1.706
1.706
1.711
1.701
1.686
1.691
1.711
1.711
1.691
1.686
1.686
1.686
1.672
1.681
1.706
1.716
1.716
1.72
1.73
1.745
1.73
1.72
1.735
1.75
1.745
1.735
1.74
1.75
1.745
1.725
1.725
1.735
1.745
1.75
1.764
1.784
1.789
1.774
1.774
1.779
1.779
1.769
1.769
1.779
1.784
1.774
1.769
1.779
1.779
1.769
1.764
1.769
1.789
1.784
1.774
1.784
1.804
1.804
1.794
1.784
1.789
1.784
1.764
1.76
1.764
1.76
1.735
1.711
1.706
1.711
1.686
1.681
1.696
1.716
1.716
1.711
1.716
1.725
1.711
1.681
1.676
1.681
1.676
1.662
1.657
1.672
1.657
1.632
1.628
1.642
1.652
1.652
1.652
1.667
1.681
1.672
1.662
1.672
1.672
1.657
1.647
1.652
1.662
1.652
1.637
1.642
1.662
1.672
1.662
1.657
1.667
1.667
1.657
1.657
1.667
1.672
1.667
1.667
1.681
1.696
1.681
1.667
1.662
1.662
1.647
1.637
1.637
1.657
1.662
1.662
1.676
1.701
1.701
1.696
1.696
1.706
1.701
1.672
1.662
1.667
1.662
1.652
1.647
1.657
1.667
1.657
1.652
1.662
1.672
1.672
1.667
1.676
1.696
1.691
1.681
1.696
1.711
1.701
1.681
1.657
1.652
1.647
1.632
1.637
1.657
1.672
1.672
1.676
1.696
1.711
1.701
1.691
1.696
1.696
1.681
1.667
1.667
1.681
1.681
1.667
1.676
1.696
1.701
1.691
1.686
1.686
1.676
1.652
1.647
1.652
1.652
1.647
1.657
1.681
1.706
1.701
1.696
1.706
1.716
1.706
1.686
1.676
1.681
1.672
1.657
1.672
1.691
1.696
1.686
1.681
1.691
1.691
1.672
1.672
1.686
1.691
1.681
1.676
1.681
1.686
1.672
1.662
1.676
1.686
1.686
1.676
1.686
1.701
1.701
1.681
1.681
1.686
1.686
1.676
1.676
1.686
1.681
1.662
1.657
1.676
1.696
1.701
1.711
1.72
1.735
1.72
1.706
1.706
1.701
1.691
1.681
1.686
1.706
1.706
1.696
1.706
1.72
1.72
1.706
1.701
1.716
1.725
1.72
1.73
1.745
1.75
1.73
1.716
1.711
1.706
1.681
1.662
1.667
1.681
1.686
1.686
1.701
1.72
1.716
1.701
1.701
1.706
1.701
1.686
1.676
1.681
1.676
1.667
1.672
1.701
1.716
1.711
1.706
1.711
1.716
1.696
1.672
1.681
1.686
1.676
1.662
1.667
1.681
1.676
1.657
1.657
1.672
1.672
1.672
1.681
1.701
1.716
1.716
1.735
1.779
1.818
1.843
1.867
1.911
1.965
1.994
2.028
2.053
2.063
2.038
1.994
1.955
1.916
1.852
1.774
1.716
1.667
1.623
1.593
1.579
1.593
1.608
1.613
1.628
1.667
1.686
1.696
1.691
1.701
1.701
1.676
1.657
1.662
1.676
1.672
1.667
1.672
1.686
1.681
1.672
1.681
1.691
1.676
1.662
1.657
1.672
1.681
1.676
1.681
1.701
1.716
1.716
1.706
1.701
1.701
1.676
1.662
1.667
1.676
1.676
1.672
1.681
1.701
1.701
1.691
1.696
1.716
1.725
1.72
1.711
1.716
1.716
1.696
1.686
1.691
1.686
1.672
1.672
1.696
1.725
1.72
1.72
1.73
1.745
1.74
1.73
1.73
1.745
1.745
1.735
1.735
1.745
1.75
1.74
1.735
1.74
1.75
1.74
1.745
1.76
1.769
1.764
1.764
1.774
1.774
1.75
1.735
1.74
1.745
1.745
1.75
1.774
1.813
1.828
1.828
1.838
1.848
1.838
1.818
1.804
1.804
1.799
1.779
1.779
1.794
1.799
1.784
1.774
1.774
1.779
1.764
1.76
1.774
1.794
1.799
1.789
1.784
1.779
1.75
1.711
1.706
1.711
1.706
1.691
1.686
1.701
1.711
1.696
1.691
1.701
1.701
1.681
1.662
1.657
1.662
1.647
1.637
1.652
1.667
1.662
1.652
1.652
1.667
1.662
1.647
1.652
1.667
1.662
1.647
1.632
1.637
1.637
1.623
1.618
1.632
1.642
1.647
1.657
1.676
1.691
1.681
1.667
1.672
1.676
1.667
1.657
1.662
1.686
1.696
1.691
1.696
1.706
1.696
1.681
1.662
1.657
1.647
1.618
1.618
1.637
1.652
1.662
1.672
1.691
1.706
1.691
1.672
1.672
1.672
1.662
1.647
1.642
1.657
1.657
1.642
1.652
1.672
1.672
1.662
1.657
1.672
1.681
1.662
1.662
1.676
1.686
1.681
1.672
1.672
1.676
1.657
1.642
1.647
1.662
1.662
1.657
1.672
1.696
1.711
1.701
1.706
1.711
1.701
1.686
1.676
1.681
1.676
1.652
1.642
1.642
1.642
1.637
1.637
1.642
1.662
1.662
1.657
1.672
1.686
1.686
1.681
1.686
1.691
1.672
1.652
1.652
1.672
1.681
1.676
1.667
1.672
1.672
1.657
1.657
1.672
1.686
1.681
1.676
1.686
1.696
1.686
1.676
1.691
1.701
1.686
1.672
1.676
1.691
1.696
1.681
1.686
1.696
1.691
1.676
1.676
1.686
1.696
1.686
1.686
1.706
1.72
1.725
1.73
1.74
1.75
1.73
1.706
1.701
1.696
1.667
1.642
1.647
1.676
1.696
1.701
1.716
1.74
1.74
1.72
1.701
1.691
1.676
1.652
1.647
1.672
1.701
1.711
1.706
1.711
1.706
1.681
1.652
1.652
1.662
1.657
1.657
1.672
1.696
1.701
1.681
1.676
1.681
1.672
1.657
1.647
1.647
1.647
1.632
1.632
1.662
1.681
1.691
1.696
1.716
1.74
1.745
1.745
1.769
1.784
1.789
1.799
1.833
1.887
1.921
1.94
1.97
1.994
1.994
1.965
1.931
1.887
1.833
1.755
1.686
1.652
1.628
1.603
1.588
1.588
1.608
1.613
1.618
1.637
1.657
1.657
1.647
1.652
1.667
1.672
1.662
1.667
1.676
1.681
1.667
1.652
1.652
1.657
1.647
1.642
1.657
1.667
1.672
1.676
1.696
1.711
1.696
1.676
1.681
1.696
1.691
1.686
1.691
1.701
1.696
1.676
1.672
1.681
1.681
1.672
1.667
1.681
1.691
1.676
1.681
1.696
1.706
1.706
1.701
1.706
1.716
1.701
1.681
1.686
1.696
1.691
1.676
1.676
1.701
1.711
1.706
1.716
1.735
1.74
1.725
1.716
1.72
1.725
1.706
1.701
1.716
1.735
1.74
1.745
1.75
1.764
1.75
1.74
1.735
1.74
1.73
1.725
1.73
1.75
1.764
1.76
1.764
1.784
1.789
1.789
1.779
1.784
1.794
1.779
1.774
1.779
1.779
1.76
1.75
1.75
1.764
1.76
1.755
1.774
1.799
1.804
1.794
1.789
1.794
1.789
1.764
1.76
1.769
1.779
1.769
1.76
1.76
1.75
1.716
1.701
1.696
1.696
1.681
1.676
1.686
1.701
1.691
1.672
1.676
1.681
1.672
1.657
1.647
1.652
1.647
1.628
1.628
1.642
1.647
1.637
1.628
1.623
1.613
1.593
1.588
1.608
1.618
1.618
1.623
1.637
1.657
1.652
1.642
1.652
1.657
1.647
1.632
1.637
1.662
1.672
1.652
1.642
1.647
1.647
1.637
1.632
1.647
1.662
1.652
1.647
1.667
1.681
1.676
1.662
1.652
1.657
1.642
1.628
1.637
1.652
1.657
1.652
1.657
1.672
1.676
1.657
1.652
1.662
1.657
1.637
1.628
1.637
1.642
1.628
1.628
1.642
1.657
1.657
1.652
1.652
1.667
1.657
1.647
1.652
1.657
1.647
1.632
1.632
1.652
1.657
1.647
1.657
1.676
1.681
1.676
1.662
1.662
1.657
1.637
1.632
1.652
1.662
1.667
1.667
1.676
1.691
1.681
1.657
1.652
1.652
1.642
1.632
1.637
1.657
1.667
1.662
1.672
1.681
1.672
1.657
1.642
1.647
1.642
1.618
1.603
1.618
1.632
1.642
1.647
1.657
1.667
1.662
1.652
1.662
1.676
1.672
1.662
1.657
1.672
1.676
1.657
1.652
1.662
1.667
1.662
1.652
1.662
1.672
1.657
1.647
1.657
1.667
1.652
1.642
1.652
1.672
1.672
1.662
1.667
1.676
1.681
1.681
1.681
1.696
1.686
1.657
1.652
1.662
1.662
1.652
1.652
1.672
1.691
1.691
1.691
1.711
1.716
1.701
1.686
1.686
1.691
1.681
1.672
1.691
1.711
1.711
1.696
1.696
1.706
1.706
1.681
1.681
1.696
1.701
1.701
1.696
1.696
1.696
1.662
1.642
1.647
1.652
1.647
1.642
1.652
1.672
1.672
1.662
1.662
1.662
1.647
1.628
1.618
1.623
1.628
1.618
1.628
1.647
1.657
1.657
1.662
1.681
1.696
1.681
1.672
1.681
1.686
1.681
1.672
1.676
1.696
1.701
1.706
1.745
1.799
1.833
1.857
1.882
1.926
1.96
1.97
1.979
1.994
1.979
1.94
1.891
1.848
1.799
1.72
1.657
1.623
1.608
1.588
1.579
1.588
1.613
1.618
1.608
1.623
1.647
1.662
1.667
1.676
1.686
1.676
1.652
1.642
1.647
1.647
1.632
1.628
1.642
1.662
1.657
1.662
1.676
1.681
1.672
1.657
1.652
1.657
1.647
1.642
1.657
1.676
1.672
1.667
1.667
1.681
1.686
1.672
1.676
1.691
1.696
1.681
1.672
1.676
1.686
1.672
1.662
1.672
1.676
1.667
1.667
1.672
1.686
1.681
1.672
1.686
1.706
1.711
1.706
1.706
1.72
1.73
1.711
1.701
1.706
1.701
1.696
1.696
1.716
1.73
1.716
1.706
1.711
1.716
1.706
1.701
1.711
1.72
1.72
1.716
1.735
1.76
1.764
1.75
1.74
1.75
1.755
1.74
1.735
1.75
1.76
1.76
1.755
1.76
1.76
1.745
1.745
1.769
1.784
1.784
1.779
1.779
1.799
1.799
1.779
1.769
1.774
1.769
1.76
1.76
1.769
1.769
1.745
1.735
1.74
1.735
1.711
1.696
1.696
1.701
1.686
1.686
1.701
1.716
1.716
1.701
1.701
1.701
1.681
1.662
1.667
1.676
1.672
1.662
1.657
1.667
1.662
1.632
1.618
1.618
1.623
1.623
1.618
1.628
1.642
1.642
1.647
1.662
1.667
1.662
1.652
1.652
1.657
1.642
1.618
1.623
1.637
1.637
1.623
1.623
1.637
1.642
1.632
1.637
1.652
1.652
1.642
1.632
1.637
1.647
1.632
1.628
1.637
1.657
1.662
1.667
1.676
1.691
1.686
1.667
1.667
1.676
1.667
1.657
1.667
1.686
1.696
1.676
1.667
1.672
1.667
1.652
1.647
1.652
1.652
1.637
1.623
1.632
1.647
1.637
1.628
1.623
1.642
1.647
1.652
1.667
1.691
1.691
1.681
1.676
1.681
1.676
1.657
1.647
1.652
1.652
1.637
1.628
1.632
1.647
1.637
1.628
1.642
1.657
1.662
1.662
1.676
1.686
1.681
1.657
1.662
1.676
1.681
1.672
1.662
1.667
1.662
1.642
1.637
1.657
1.662
1.652
1.642
1.652
1.662
1.647
1.642
1.652
1.662
1.662
1.657
1.662
1.681
1.676
1.662
1.657
1.667
1.652
1.632
1.628
1.647
1.657
1.642
1.637
1.647
1.652
1.647
1.652
1.667
1.686
1.676
1.672
1.676
1.681
1.667
1.657
1.657
1.672
1.672
1.667
1.681
1.696
1.701
1.696
1.691
1.691
1.691
1.672
1.667
1.681
1.686
1.686
1.681
1.691
1.701
1.696
1.691
1.706
1.716
1.706
1.686
1.681
1.696
1.696
1.681
1.686
1.706
1.706
1.701
1.701
1.716
1.711
1.681
1.672
1.676
1.672
1.662
1.652
1.662
1.672
1.667
1.672
1.686
1.691
1.681
1.662
1.647
1.647
1.637
1.618
1.628
1.647
1.657
1.652
1.657
1.672
1.681
1.667
1.657
1.662
1.667
1.662
1.662
1.672
1.686
1.676
1.667
1.681
1.706
1.716
1.725
1.755
1.794
1.823
1.848
1.891
1.94
1.979
2.009
2.028
2.043
2.033
1.989
1.935
1.887
1.828
1.75
1.672
1.613
1.579
1.54
1.52
1.53
1.559
1.579
1.598
1.628
1.662
1.672
1.667
1.667
1.672
1.662
1.647
1.637
1.652
1.657
1.652
1.652
1.667
1.672
1.662
1.652
1.657
1.662
1.647
1.632
1.647
1.662
1.657
1.652
1.652
1.667
1.667
1.657
1.667
1.681
1.672
1.662
1.657
1.667
1.676
1.662
1.657
1.672
1.681
1.681
1.672
1.681
1.691
1.681
1.662
1.672
1.681
1.676
1.657
1.647
1.652
1.652
1.647
1.662
1.686
1.696
1.696
1.701
1.725
1.735
1.72
1.716
1.725
1.73
1.72
1.711
1.711
1.716
1.696
1.681
1.691
1.701
1.706
1.706
1.725
1.75
1.75
1.74
1.745
1.76
1.76
1.75
1.745
1.755
1.755
1.73
1.72
1.735
1.745
1.74
1.745
1.764
1.784
1.784
1.779
1.784
1.794
1.789
1.774
1.764
1.774
1.764
1.745
1.75
1.76
1.76
1.745
1.735
1.745
1.74
1.72
1.716
1.725
1.73
1.72
1.706
1.696
1.691
1.667
1.647
1.652
1.662
1.657
1.647
1.652
1.672
1.667
1.647
1.647
1.657
1.652
1.642
1.637
1.647
1.657
1.647
1.642
1.642
1.637
1.623
1.613
1.623
1.637
1.637
1.628
1.647
1.662
1.662
1.647
1.647
1.652
1.647
1.632
1.637
1.652
1.652
1.642
1.637
1.637
1.632
1.608
1.598
1.608
1.618
1.618
1.618
1.628
1.637
1.637
1.637
1.657
1.672
1.667
1.662
1.667
1.676
1.676
1.652
1.647
1.657
1.667
1.662
1.657
1.662
1.662
1.647
1.642
1.652
1.657
1.652
1.642
1.642
1.657
1.657
1.657
1.662
1.667
1.657
1.647
1.652
1.672
1.662
1.632
1.628
1.642
1.642
1.637
1.642
1.657
1.667
1.657
1.652
1.662
1.667
1.657
1.647
1.652
1.662
1.657
1.647
1.662
1.676
1.667
1.652
1.652
1.657
1.647
1.623
1.623
1.642
1.652
1.652
1.657
1.672
1.686
1.672
1.662
1.672
1.672
1.657
1.637
1.637
1.647
1.642
1.637
1.657
1.676
1.681
1.686
1.691
1.696
1.686
1.662
1.657
1.657
1.642
1.618
1.608
1.618
1.632
1.632
1.637
1.657
1.667
1.667
1.667
1.676
1.686
1.672
1.662
1.676
1.696
1.701
1.696
1.696
1.706
1.701
1.681
1.676
1.691
1.691
1.681
1.676
1.691
1.701
1.686
1.686
1.701
1.716
1.72
1.725
1.74
1.755
1.74
1.72
1.72
1.72
1.706
1.686
1.672
1.676
1.667
1.652
1.662
1.681
1.676
1.662
1.652
1.662
1.676
1.667
1.662
1.676
1.681
1.676
1.667
1.667
1.667
1.657
1.642
1.657
1.672
1.676
1.676
1.681
1.701
1.696
1.676
1.676
1.686
1.691
1.686
1.686
1.696
1.701
1.681
1.681
1.696
1.706
1.706
1.711
1.74
1.794
1.828
1.877
1.94
2.009
2.053
2.072
2.087
2.087
2.053
1.984
1.926
1.872
1.813
1.755
1.701
1.662
1.637
1.603
1.588
1.598
1.603
1.603
1.603
1.623
1.652
1.652
1.647
1.657
1.667
1.672
1.667
1.676
1.691
1.691
1.676
1.676
1.681
1.681
1.662
1.652
1.652
1.657
1.647
1.647
1.662
1.672
1.672
1.662
1.672
1.686
1.686
1.686
1.696
1.716
1.711
1.701
1.711
1.72
1.716
1.701
1.701
1.716
1.716
1.711
1.711
1.72
1.72
1.696
1.686
1.696
1.696
1.691
1.686
1.691
1.696
1.681
1.672
1.696
1.72
1.725
1.73
1.735
1.745
1.74
1.716
1.706
1.711
1.711
1.706
1.711
1.735
1.755
1.75
1.745
1.75
1.75
1.735
1.72
1.725
1.75
1.755
1.755
1.769
1.789
1.789
1.784
1.784
1.789
1.784
1.764
1.755
1.769
1.774
1.774
1.784
1.804
1.818
1.808
1.799
1.808
1.818
1.808
1.794
1.784
1.779
1.76
1.75
1.764
1.784
1.784
1.769
1.76
1.769
1.764
1.745
1.745
1.75
1.745
1.725
1.711
1.706
1.706
1.686
1.672
1.686
1.691
1.686
1.676
1.686
1.701
1.691
1.672
1.676
1.676
1.662
1.647
1.652
1.667
1.667
1.647
1.642
1.647
1.647
1.637
1.632
1.647
1.657
1.652
1.657
1.686
1.701
1.691
1.667
1.652
1.652
1.637
1.628
1.637
1.657
1.667
1.672
1.681
1.696
1.691
1.667
1.657
1.657
1.662
1.657
1.662
1.681
1.691
1.676
1.662
1.662
1.662
1.647
1.632
1.647
1.672
1.667
1.662
1.676
1.686
1.691
1.686
1.681
1.691
1.681
1.662
1.662
1.681
1.681
1.667
1.652
1.657
1.662
1.652
1.657
1.676
1.691
1.691
1.686
1.691
1.706
1.701
1.681
1.676
1.686
1.681
1.667
1.672
1.686
1.691
1.681
1.686
1.691
1.681
1.667
1.647
1.647
1.647
1.628
1.618
1.637
1.662
1.676
1.691
1.711
1.735
1.73
1.711
1.706
1.701
1.681
1.662
1.647
1.652
1.647
1.628
1.628
1.642
1.657
1.662
1.672
1.696
1.711
1.701
1.696
1.706
1.711
1.701
1.691
1.691
1.706
1.696
1.681
1.681
1.686
1.681
1.667
1.667
1.681
1.696
1.701
1.716
1.74
1.75
1.74
1.735
1.735
1.74
1.725
1.72
1.73
1.735
1.73
1.72
1.72
1.72
1.706
1.691
1.696
1.706
1.706
1.696
1.696
1.711
1.711
1.691
1.686
1.691
1.691
1.686
1.681
1.691
1.696
1.681
1.667
1.672
1.676
1.662
1.652
1.652
1.662
1.662
1.662
1.681
1.701
1.701
1.691
1.681
1.686
1.676
1.652
1.652
1.672
1.691
1.696
1.701
1.716
1.73
1.725
1.73
1.76
1.779
1.794
1.808
1.838
1.887
1.916
1.945
1.984
2.019
2.023
1.999
1.97
1.945
1.896
1.823
1.755
1.696
1.647
1.608
1.588
1.598
1.608
1.603
1.608
1.632
1.652
1.647
1.642
1.652
1.676
1.681
1.672
1.686
1.701
1.696
1.681
1.672
1.676
1.667
1.647
1.642
1.657
1.667
1.672
1.681
1.701
1.711
1.696
1.686
1.691
1.686
1.676
1.662
1.672
1.691
1.686
1.681
1.696
1.716
1.716
1.706
1.701
1.706
1.696
1.676
1.676
1.696
1.716
1.72
1.725
1.735
1.745
1.73
1.72
1.73
1.735
1.72
1.706
1.701
1.706
1.696
1.691
1.701
1.716
1.716
1.711
1.716
1.735
1.75
1.745
1.745
1.76
1.764
1.755
1.755
1.76
1.769
1.745
1.725
1.73
1.74
1.735
1.735
1.75
1.769
1.769
1.764
1.779
1.804
1.808
1.799
1.794
1.804
1.804
1.789
1.779
1.784
1.784
1.779
1.774
1.779
1.784
1.774
1.774
1.794
1.813
1.813
1.808
1.813
1.828
1.828
1.808
1.804
1.794
1.774
1.75
1.74
1.745
1.74
1.72
1.716
1.73
1.735
1.72
1.711
1.716
1.72
1.706
1.691
1.696
1.696
1.681
1.667
1.672
1.676
1.662
1.647
1.662
1.681
1.676
1.662
1.662
1.667
1.662
1.637
1.637
1.652
1.662
1.657
1.657
1.672
1.681
1.667
1.652
1.657
1.667
1.667
1.667
1.676
1.691
1.686
1.672
1.676
1.691
1.686
1.672
1.662
1.672
1.672
1.657
1.652
1.662
1.657
1.642
1.642
1.652
1.667
1.652
1.652
1.672
1.686
1.676
1.667
1.667
1.676
1.672
1.667
1.681
1.696
1.696
1.691
1.691
1.696
1.686
1.662
1.657
1.672
1.681
1.676
1.676
1.691
1.711
1.701
1.681
1.681
1.686
1.681
1.667
1.662
1.667
1.662
1.652
1.662
1.681
1.681
1.681
1.686
1.701
1.706
1.681
1.667
1.672
1.662
1.642
1.628
1.628
1.647
1.657
1.667
1.696
1.711
1.706
1.691
1.681
1.686
1.672
1.652
1.657
1.672
1.676
1.672
1.672
1.686
1.686
1.667
1.662
1.676
1.681
1.672
1.667
1.676
1.691
1.686
1.676
1.691
1.711
1.716
1.72
1.73
1.745
1.745
1.73
1.735
1.74
1.73
1.706
1.686
1.686
1.681
1.662
1.657
1.667
1.676
1.681
1.691
1.706
1.716
1.696
1.681
1.691
1.696
1.686
1.672
1.672
1.681
1.672
1.652
1.652
1.672
1.672
1.667
1.672
1.681
1.691
1.681
1.681
1.686
1.686
1.681
1.676
1.691
1.711
1.696
1.676
1.672
1.672
1.657
1.642
1.642
1.652
1.652
1.652
1.672
1.696
1.716
1.735
1.76
1.789
1.813
1.823
1.857
1.906
1.935
1.95
1.945
1.945
1.931
1.891
1.838
1.808
1.769
1.72
1.676
1.652
1.642
1.623
1.603
1.608
1.618
1.613
1.608
1.618
1.647
1.672
1.662
1.667
1.676
1.676
1.662
1.647
1.652
1.662
1.647
1.637
1.647
1.662
1.662
1.652
1.642
1.642
1.637
1.623
1.637
1.657
1.667
1.672
1.686
1.701
1.706
1.681
1.681
1.691
1.701
1.696
1.691
1.701
1.706
1.691
1.672
1.676
1.681
1.676
1.667
1.672
1.691
1.696
1.686
1.691
1.701
1.706
1.696
1.696
1.711
1.716
1.696
1.691
1.701
1.711
1.706
1.696
1.701
1.716
1.711
1.711
1.725
1.73
1.725
1.72
1.725
1.74
1.74
1.725
1.73
1.75
1.755
1.74
1.745
1.769
1.784
1.774
1.769
1.784
1.784
1.769
1.76
1.76
1.764
1.755
1.75
1.764
1.779
1.779
1.774
1.779
1.799
1.789
1.769
1.774
1.794
1.804
1.794
1.794
1.804
1.804
1.774
1.764
1.764
1.755
1.725
1.711
1.711
1.716
1.706
1.706
1.725
1.745
1.74
1.73
1.72
1.72
1.706
1.686
1.681
1.686
1.686
1.672
1.667
1.676
1.667
1.637
1.623
1.623
1.628
1.618
1.618
1.637
1.657
1.662
1.667
1.691
1.706
1.691
1.667
1.657
1.657
1.642
1.608
1.603
1.613
1.623
1.623
1.628
1.647
1.657
1.642
1.647
1.662
1.667
1.662
1.657
1.667
1.681
1.672
1.657
1.667
1.672
1.667
1.652
1.652
1.657
1.652
1.642
1.647
1.657
1.652
1.642
1.637
1.647
1.657
1.637
1.632
1.647
1.657
1.657
1.657
1.667
1.681
1.672
1.662
1.667
1.672
1.672
1.667
1.672
1.686
1.686
1.672
1.681
1.696
1.701
1.681
1.667
1.667
1.657
1.628
1.618
1.623
1.628
1.632
1.632
1.652
1.676
1.681
1.681
1.696
1.706
1.696
1.676
1.667
1.667
1.657
1.637
1.642
1.662
1.667
1.662
1.657
1.676
1.691
1.676
1.667
1.676
1.681
1.672
1.662
1.667
1.681
1.672
1.672
1.691
1.706
1.706
1.701
1.711
1.72
1.711
1.686
1.681
1.691
1.696
1.691
1.686
1.696
1.706
1.691
1.691
1.701
1.701
1.696
1.691
1.696
1.706
1.696
1.691
1.706
1.72
1.716
1.701
1.686
1.686
1.672
1.647
1.647
1.657
1.662
1.652
1.647
1.662
1.662
1.642
1.637
1.657
1.667
1.667
1.657
1.672
1.686
1.676
1.657
1.652
1.647
1.632
1.628
1.637
1.657
1.662
1.657
1.662
1.676
1.681
1.676
1.681
1.711
1.74
1.75
1.789
1.838
1.882
1.906
1.926
1.94
1.96
1.95
1.926
1.906
1.877
1.833
1.784
1.74
1.706
1.667
1.623
1.608
1.608
1.608
1.598
1.598
1.618
1.628
1.623
1.632
1.652
1.657
1.657
1.647
1.657
1.667
1.657
1.647
1.657
1.672
1.672
1.662
1.657
1.662
1.647
1.628
1.628
1.642
1.642
1.637
1.632
1.647
1.662
1.657
1.657
1.672
1.681
1.681
1.676
1.686
1.691
1.676
1.657
1.667
1.676
1.672
1.667
1.672
1.686
1.686
1.672
1.676
1.691
1.691
1.686
1.686
1.701
1.711
1.706
1.701
1.711
1.711
1.701
1.686
1.686
1.696
1.681
1.662
1.667
1.676
1.676
1.676
1.691
1.716
1.72
1.711
1.72
1.735
1.735
1.72
1.706
1.72
1.73
1.725
1.73
1.75
1.764
1.764
1.76
1.755
1.755
1.74
1.73
1.745
1.764
1.774
1.779
1.784
1.794
1.784
1.76
1.755
1.755
1.75
1.74
1.745
1.769
1.784
1.769
1.764
1.779
1.779
1.764
1.75
1.74
1.74
1.725
1.711
1.716
1.716
1.696
1.676
1.672
1.681
1.686
1.672
1.672
1.686
1.691
1.686
1.681
1.676
1.667
1.642
1.632
1.642
1.652
1.647
1.642
1.652
1.667
1.662
1.652
1.652
1.652
1.642
1.623
1.623
1.628
1.623
1.598
1.598
1.618
1.628
1.628
1.628
1.642
1.652
1.637
1.632
1.637
1.642
1.632
1.637
1.652
1.667
1.657
1.647
1.652
1.657
1.647
1.632
1.628
1.637
1.642
1.637
1.647
1.667
1.667
1.657
1.647
1.652
1.657
1.632
1.628
1.647
1.662
1.667
1.672
1.686
1.701
1.691
1.676
1.667
1.667
1.657
1.642
1.637
1.642
1.637
1.628
1.632
1.657
1.662
1.652
1.647
1.657
1.662
1.647
1.647
1.667
1.681
1.672
1.662
1.662
1.667
1.647
1.632
1.637
1.652
1.652
1.642
1.642
1.667
1.676
1.676
1.681
1.691
1.681
1.657
1.642
1.642
1.637
1.618
1.618
1.642
1.667
1.681
1.696
1.72
1.74
1.72
1.691
1.676
1.667
1.642
1.623
1.623
1.637
1.642
1.632
1.652
1.676
1.686
1.686
1.691
1.706
1.716
1.706
1.701
1.701
1.701
1.696
1.681
1.681
1.691
1.676
1.657
1.657
1.667
1.672
1.672
1.676
1.691
1.691
1.676
1.686
1.701
1.701
1.681
1.662
1.657
1.657
1.632
1.628
1.632
1.637
1.632
1.623
1.637
1.657
1.657
1.652
1.667
1.681
1.676
1.662
1.652
1.652
1.637
1.608
1.608
1.623
1.637
1.642
1.652
1.672
1.691
1.691
1.701
1.73
1.75
1.76
1.764
1.789
1.828
1.857
1.882
1.926
1.965
1.979
1.984
1.979
1.965
1.926
1.857
1.799
1.755
1.706
1.652
1.613
1.598
1.593
1.574
1.564
1.574
1.593
1.603
1.618
1.637
1.662
1.657
1.642
1.642
1.652
1.642
1.632
1.628
1.642
1.647
1.642
1.657
1.676
1.676
1.667
1.657
1.662
1.667
1.652
1.647
1.662
1.672
1.662
1.647
1.642
1.647
1.637
1.632
1.647
1.662
1.662
1.657
1.662
1.681
1.681
1.662
1.667
1.686
1.701
1.701
1.701
1.716
1.716
1.691
1.676
1.676
1.681
1.676
1.672
1.681
1.701
1.701
1.696
1.701
1.716
1.711
1.696
1.686
1.701
1.706
1.691
1.691
1.701
1.706
1.701
1.691
1.701
1.706
1.696
1.696
1.711
1.72
1.716
1.706
1.725
1.745
1.745
1.73
1.74
1.75
1.755
1.75
1.755
1.774
1.779
1.764
1.769
1.794
1.799
1.784
1.774
1.774
1.769
1.75
1.745
1.764
1.779
1.784
1.779
1.784
1.789
1.769
1.75
1.75
1.75
1.73
1.706
1.691
1.696
1.696
1.681
1.681
1.706
1.711
1.711
1.706
1.711
1.706
1.686
1.667
1.667
1.667
1.657
1.637
1.637
1.642
1.632
1.628
1.637
1.652
1.652
1.647
1.642
1.652
1.647
1.628
1.618
1.628
1.623
1.618
1.618
1.637
1.657
1.652
1.637
1.642
1.642
1.632
1.628
1.642
1.662
1.662
1.652
1.662
1.676
1.676
1.662
1.652
1.657
1.647
1.623
1.613
1.623
1.623
1.618
1.618
1.632
1.647
1.642
1.647
1.662
1.672
1.667
1.652
1.652
1.652
1.637
1.613
1.623
1.637
1.642
1.637
1.652
1.676
1.686
1.676
1.681
1.696
1.696
1.681
1.662
1.662
1.662
1.637
1.628
1.637
1.647
1.642
1.637
1.647
1.662
1.662
1.652
1.662
1.676
1.676
1.667
1.667
1.672
1.672
1.647
1.637
1.647
1.647
1.642
1.637
1.652
1.662
1.652
1.642
1.657
1.667
1.662
1.662
1.667
1.681
1.681
1.672
1.686
1.701
1.696
1.681
1.676
1.686
1.681
1.667
1.662
1.667
1.667
1.667
1.667
1.686
1.701
1.696
1.701
1.716
1.716
1.706
1.691
1.691
1.706
1.696
1.686
1.691
1.701
1.696
1.681
1.676
1.676
1.667
1.642
1.637
1.652
1.667
1.667
1.672
1.691
1.706
1.691
1.686
1.696
1.701
1.686
1.662
1.652
1.652
1.642
1.632
1.632
1.642
1.642
1.647
1.652
1.672
1.672
1.652
1.652
1.662
1.657
1.628
1.608
1.618
1.637
1.632
1.637
1.657
1.676
1.686
1.696
1.716
1.735
1.735
1.73
1.764
1.808
1.843
1.872
1.906
1.96
1.994
1.999
2.004
2.004
1.979
1.926
1.867
1.808
1.75
1.672
1.618
1.593
1.574
1.554
1.544
1.564
1.598
1.618
1.623
1.637
1.667
1.681
1.676
1.672
1.681
1.672
1.647
1.647
1.657
1.662
1.647
1.637
1.642
1.652
1.642
1.632
1.652
1.672
1.676
1.676
1.681
1.701
1.696
1.672
1.667
1.676
1.676
1.667
1.657
1.672
1.672
1.652
1.652
1.667
1.672
1.672
1.667
1.676
1.681
1.662
1.647
1.657
1.657
1.652
1.642
1.642
1.657
1.657
1.652
1.672
1.696
1.716
1.72
1.73
1.74
1.735
1.706
1.691
1.691
1.676
1.657
1.647
1.667
1.691
1.701
1.711
1.735
1.75
1.75
1.74
1.74
1.745
1.73
1.716
1.72
1.73
1.73
1.72
1.72
1.735
1.745
1.73
1.735
1.75
1.75
1.74
1.725
1.73
1.735
1.716
1.706
1.725
1.75
1.764
1.769
1.784
1.799
1.794
1.779
1.779
1.784
1.774
1.764
1.755
1.764
1.764
1.74
1.73
1.735
1.73
1.711
1.701
1.711
1.716
1.696
1.672
1.667
1.667
1.657
1.637
1.623
1.632
1.637
1.642
1.662
1.676
1.676
1.657
1.647
1.647
1.642
1.618
1.608
1.608
1.608
1.593
1.588
1.593
1.618
1.618
1.623
1.642
1.662
1.662
1.662
1.667
1.676
1.662
1.637
1.642
1.647
1.647
1.642
1.642
1.652
1.652
1.632
1.628
1.642
1.647
1.637
1.628
1.632
1.642
1.628
1.623
1.637
1.657
1.662
1.667
1.672
1.681
1.667
1.642
1.628
1.628
1.623
1.613
1.618
1.632
1.642
1.637
1.652
1.676
1.686
1.672
1.657
1.657
1.667
1.652
1.632
1.642
1.647
1.642
1.637
1.647
1.667
1.662
1.647
1.652
1.662
1.657
1.647
1.652
1.672
1.676
1.657
1.657
1.676
1.681
1.667
1.652
1.642
1.647
1.632
1.623
1.637
1.647
1.647
1.642
1.657
1.681
1.681
1.662
1.667
1.672
1.662
1.652
1.642
1.652
1.652
1.647
1.652
1.662
1.662
1.657
1.647
1.652
1.657
1.637
1.628
1.642
1.657
1.667
1.672
1.676
1.691
1.691
1.676
1.681
1.691
1.686
1.676
1.681
1.701
1.706
1.691
1.686
1.686
1.672
1.652
1.632
1.632
1.647
1.647
1.652
1.681
1.701
1.701
1.696
1.696
1.706
1.696
1.676
1.681
1.691
1.696
1.691
1.691
1.701
1.701
1.676
1.672
1.691
1.701
1.701
1.701
1.716
1.725
1.716
1.696
1.696
1.701
1.686
1.672
1.672
1.676
1.662
1.647
1.652
1.662
1.667
1.657
1.662
1.676
1.681
1.672
1.672
1.681
1.676
1.657
1.642
1.642
1.652
1.642
1.637
1.647
1.662
1.657
1.647
1.657
1.676
1.681
1.667
1.676
1.691
1.701
1.711
1.74
1.794
1.833
1.862
1.911
1.97
2.019
2.043
2.048
2.058
2.048
2.004
1.955
1.916
1.862
1.789
1.711
1.652
1.618
1.584
1.559
1.564
1.593
1.613
1.628
1.642
1.667
1.676
1.667
1.667
1.681
1.676
1.652
1.632
1.632
1.637
1.613
1.603
1.623
1.647
1.657
1.667
1.686
1.711
1.711
1.691
1.686
1.691
1.681
1.662
1.652
1.662
1.652
1.628
1.632
1.657
1.676
1.681
1.686
1.701
1.72
1.711
1.701
1.706
1.711
1.696
1.676
1.681
1.696
1.696
1.681
1.681
1.696
1.691
1.676
1.672
1.672
1.681
1.672
1.686
1.711
1.725
1.725
1.73
1.745
1.764
1.745
1.72
1.72
1.72
1.711
1.701
1.706
1.72
1.716
1.706
1.711
1.73
1.725
1.716
1.716
1.725
1.73
1.725
1.735
1.764
1.774
1.769
1.764
1.769
1.779
1.76
1.735
1.74
1.76
1.764
1.769
1.784
1.799
1.794
1.769
1.76
1.764
1.76
1.755
1.755
1.764
1.774
1.764
1.769
1.784
1.789
1.779
1.769
1.769
1.774
1.755
1.74
1.74
1.735
1.72
1.701
1.701
1.711
1.711
1.701
1.711
1.72
1.706
1.686
1.667
1.667
1.662
1.637
1.628
1.637
1.647
1.642
1.632
1.642
1.662
1.652
1.647
1.657
1.662
1.657
1.647
1.647
1.657
1.642
1.623
1.623
1.632
1.637
1.632
1.637
1.657
1.672
1.662
1.662
1.676
1.681
1.672
1.662
1.657
1.662
1.642
1.632
1.647
1.662
1.662
1.652
1.652
1.657
1.647
1.637
1.642
1.657
1.657
1.652
1.652
1.676
1.691
1.672
1.667
1.681
1.681
1.662
1.652
1.652
1.662
1.647
1.632
1.642
1.657
1.657
1.652
1.652
1.667
1.662
1.647
1.652
1.672
1.681
1.676
1.676
1.686
1.686
1.667
1.652
1.662
1.667
1.657
1.652
1.662
1.676
1.667
1.647
1.647
1.667
1.676
1.672
1.672
1.686
1.686
1.667
1.672
1.681
1.672
1.652
1.642
1.652
1.662
1.657
1.657
1.676
1.676
1.667
1.667
1.681
1.696
1.686
1.681
1.696
1.711
1.706
1.686
1.672
1.672
1.667
1.652
1.657
1.672
1.672
1.662
1.652
1.657
1.662
1.647
1.652
1.672
1.686
1.691
1.691
1.701
1.711
1.691
1.667
1.667
1.667
1.662
1.652
1.657
1.676
1.676
1.667
1.667
1.681
1.686
1.681
1.681
1.701
1.706
1.691
1.686
1.696
1.706
1.696
1.691
1.691
1.701
1.686
1.676
1.691
1.701
1.701
1.696
1.701
1.72
1.72
1.711
1.711
1.725
1.725
1.72
1.716
1.72
1.72
1.701
1.701
1.725
1.735
1.72
1.711
1.716
1.73
1.716
1.706
1.701
1.701
1.686
1.676
1.686
1.711
1.72
1.706
1.706
1.711
1.711
1.696
1.691
1.696
1.696
1.667
1.667
1.681
1.696
1.701
1.701
1.706
1.706
1.686
1.672
1.676
1.676
1.662
1.647
1.647
1.667
1.667
1.662
1.672
1.696
1.701
1.691
1.686
1.696
1.711
1.716
1.745
1.794
1.843
1.882
1.921
1.97
2.023
2.048
2.063
2.082
2.087
2.067
2.023
1.975
1.926
1.852
1.76
1.691
1.642
1.608
1.579
1.574
1.588
1.603
1.603
1.618
1.642
1.657
1.662
1.662
1.676
1.691
1.681
1.667
1.672
1.676
1.667
1.657
1.672
1.696
1.706
1.696
1.696
1.706
1.706
1.691
1.681
1.686
1.686
1.676
1.691
1.72
1.74
1.735
1.716
1.711
1.711
1.701
1.686
1.696
1.706
1.701
1.691
1.691
1.706
1.701
1.686
1.691
1.701
1.706
1.701
1.701
1.716
1.725
1.711
1.716
1.725
1.725
1.716
1.706
1.706
1.716
1.706
1.701
1.725
1.75
1.755
1.745
1.74
1.745
1.735
1.716
1.716
1.74
1.75
1.75
1.76
1.774
1.784
1.769
1.755
1.76
1.76
1.75
1.745
1.76
1.774
1.769
1.755
1.769
1.784
1.784
1.784
1.794
1.808
1.804
1.789
1.794
1.804
1.799
1.794
1.789
1.799
1.804
1.789
1.784
1.804
1.813
1.804
1.789
1.789
1.794
1.779
1.764
1.769
1.774
1.76
1.745
1.75
1.76
1.755
1.735
1.73
1.725
1.706
1.686
1.681
1.691
1.701
1.686
1.686
1.701
1.711
1.696
1.681
1.676
1.672
1.647
1.623
1.632
1.647
1.647
1.647
1.662
1.691
1.696
1.681
1.681
1.691
1.681
1.672
1.662
1.662
1.652
1.632
1.628
1.642
1.652
1.652
1.657
1.667
1.681
1.672
1.662
1.676
1.686
1.686
1.676
1.676
1.686
1.676
1.647
1.637
1.642
1.647
1.652
1.662
1.686
1.701
1.686
1.681
1.701
1.706
1.691
1.667
1.662
1.681
1.691
1.686
1.696
1.706
1.696
1.686
1.681
1.681
1.676
1.657
1.657
1.676
1.676
1.667
1.652
1.662
1.672
1.662
1.667
1.686
1.691
1.676
1.662
1.662
1.676
1.667
1.662
1.672
1.686
1.686
1.691
1.701
1.72
1.716
1.691
1.686
1.691
1.686
1.681
1.676
1.696
1.706
1.696
1.701
1.711
1.711
1.696
1.676
1.672
1.672
1.657
1.642
1.657
1.667
1.667
1.667
1.672
1.696
1.701
1.681
1.681
1.686
1.686
1.681
1.672
1.676
1.681
1.662
1.662
1.676
1.681
1.676
1.667
1.672
1.681
1.672
1.662
1.676
1.696
1.701
1.701
1.701
1.711
1.706
1.686
1.686
1.701
1.701
1.686
1.676
1.681
1.681
1.667
1.662
1.672
1.676
1.672
1.662
1.672
1.701
1.706
1.711
1.73
1.755
1.755
1.745
1.745
1.75
1.74
1.711
1.706
1.711
1.706
1.701
1.701
1.716
1.725
1.711
1.711
1.711
1.711
1.691
1.672
1.681
1.691
1.681
1.676
1.686
1.696
1.691
1.681
1.676
1.676
1.657
1.628
1.628
1.647
1.657
1.662
1.667
1.681
1.696
1.681
1.676
1.686
1.691
1.681
1.676
1.681
1.691
1.686
1.681
1.691
1.706
1.706
1.701
1.706
1.725
1.735
1.73
1.75
1.779
1.804
1.823
1.857
1.906
1.945
1.96
1.984
2.004
2.009
1.979
1.931
1.882
1.833
1.755
1.676
1.628
1.613
1.598
1.593
1.613
1.642
1.662
1.657
1.662
1.681
1.686
1.681
1.681
1.691
1.701
1.691
1.691
1.711
1.711
1.691
1.667
1.662
1.667
1.657
1.647
1.662
1.672
1.667
1.657
1.652
1.667
1.672
1.662
1.662
1.672
1.676
1.676
1.681
1.696
1.701
1.686
1.691
1.711
1.72
1.716
1.696
1.691
1.696
1.681
1.672
1.686
1.706
1.716
1.716
1.73
1.745
1.745
1.725
1.72
1.735
1.735
1.72
1.706
1.706
1.701
1.672
1.662
1.676
1.696
1.701
1.711
1.735
1.76
1.76
1.75
1.755
1.76
1.75
1.735
1.735
1.75
1.755
1.75
1.75
1.76
1.75
1.74
1.735
1.75
1.769
1.76
1.764
1.784
1.804
1.799
1.789
1.794
1.804
1.789
1.769
1.769
1.779
1.774
1.764
1.764
1.764
1.764
1.755
1.774
1.799
1.813
1.818
1.818
1.833
1.833
1.804
1.779
1.769
1.755
1.73
1.716
1.72
1.725
1.72
1.711
1.716
1.725
1.72
1.706
1.696
1.701
1.696
1.672
1.672
1.686
1.686
1.676
1.667
1.667
1.662
1.632
1.618
1.623
1.632
1.628
1.623
1.642
1.672
1.681
1.676
1.681
1.686
1.676
1.662
1.662
1.672
1.667
1.652
1.657
1.676
1.676
1.672
1.662
1.672
1.676
1.662
1.657
1.672
1.676
1.672
1.662
1.662
1.672
1.657
1.642
1.647
1.667
1.667
1.662
1.662
1.672
1.662
1.647
1.652
1.667
1.676
1.676
1.681
1.701
1.706
1.686
1.676
1.681
1.681
1.667
1.657
1.657
1.662
1.657
1.647
1.662
1.676
1.681
1.681
1.691
1.716
1.72
1.701
1.701
1.706
1.701
1.681
1.667
1.667
1.672
1.657
1.652
1.667
1.676
1.672
1.662
1.667
1.681
1.676
1.667
1.672
1.681
1.681
1.672
1.662
1.662
1.657
1.637
1.642
1.662
1.667
1.667
1.672
1.691
1.701
1.686
1.676
1.691
1.696
1.681
1.662
1.667
1.681
1.676
1.662
1.667
1.676
1.667
1.647
1.642
1.652
1.657
1.652
1.667
1.686
1.686
1.676
1.662
1.662
1.667
1.647
1.642
1.657
1.667
1.676
1.686
1.701
1.72
1.716
1.701
1.706
1.72
1.716
1.711
1.711
1.72
1.72
1.696
1.686
1.691
1.696
1.691
1.696
1.711
1.72
1.701
1.691
1.701
1.706
1.691
1.667
1.662
1.672
1.667
1.657
1.667
1.681
1.676
1.667
1.667
1.667
1.662
1.642
1.637
1.657
1.672
1.672
1.667
1.676
1.681
1.662
1.652
1.667
1.676
1.667
1.657
1.667
1.681
1.672
1.657
1.667
1.681
1.681
1.676
1.681
1.706
1.711
1.701
1.691
1.696
1.701
1.706
1.725
1.764
1.813
1.838
1.877
1.926
1.965
1.984
1.984
1.979
1.96
1.911
1.857
1.823
1.784
1.73
1.667
1.623
1.603
1.579
1.554
1.559
1.584
1.608
1.613
1.637
1.672
1.711
1.711
1.711
1.711
1.706
1.686
1.672
1.662
1.667
1.657
1.642
1.647
1.662
1.662
1.657
1.657
1.667
1.662
1.647
1.647
1.667
1.676
1.667
1.662
1.662
1.667
1.652
1.647
1.662
1.667
1.667
1.672
1.691
1.711
1.711
1.706
1.706
1.706
1.686
1.667
1.662
1.667
1.672
1.662
1.672
1.691
1.691
1.686
1.686
1.696
1.706
1.696
1.696
1.711
1.72
1.716
1.701
1.701
1.711
1.706
1.701
1.711
1.735
1.745
1.745
1.745
1.75
1.74
1.716
1.706
1.72
1.73
1.725
1.72
1.73
1.735
1.725
1.725
1.745
1.76
1.76
1.755
1.755
1.769
1.769
1.769
1.784
1.794
1.794
1.784
1.789
1.808
1.804
1.769
1.755
1.769
1.784
1.789
1.794
1.813
1.828
1.813
1.789
1.779
1.76
1.73
1.701
1.686
1.696
1.696
1.691
1.706
1.73
1.725
1.706
1.696
1.696
1.681
1.652
1.642
1.652
1.657
1.647
1.647
1.662
1.672
1.657
1.642
1.642
1.647
1.642
1.637
1.647
1.667
1.662
1.647
1.652
1.667
1.667
1.652
1.647
1.652
1.647
1.628
1.623
1.632
1.632
1.623
1.608
1.613
1.623
1.618
1.623
1.642
1.657
1.657
1.652
1.652
1.662
1.647
1.628
1.628
1.647
1.657
1.657
1.652
1.657
1.662
1.642
1.642
1.652
1.652
1.637
1.637
1.647
1.667
1.657
1.647
1.652
1.662
1.662
1.657
1.662
1.672
1.662
1.647
1.652
1.667
1.662
1.647
1.632
1.642
1.652
1.647
1.652
1.672
1.676
1.672
1.672
1.681
1.681
1.662
1.642
1.642
1.642
1.632
1.628
1.632
1.647
1.647
1.637
1.657
1.676
1.681
1.676
1.676
1.691
1.691
1.667
1.657
1.657
1.657
1.647
1.642
1.652
1.662
1.647
1.637
1.652
1.662
1.662
1.657
1.662
1.676
1.667
1.652
1.662
1.676
1.676
1.662
1.647
1.647
1.642
1.628
1.632
1.647
1.657
1.652
1.652
1.672
1.686
1.676
1.662
1.672
1.676
1.667
1.652
1.647
1.652
1.652
1.637
1.642
1.657
1.662
1.667
1.676
1.701
1.711
1.696
1.686
1.691
1.681
1.667
1.657
1.672
1.686
1.681
1.676
1.696
1.706
1.696
1.686
1.686
1.696
1.686
1.667
1.672
1.681
1.686
1.681
1.686
1.706
1.72
1.711
1.711
1.716
1.716
1.701
1.686
1.681
1.681
1.662
1.647
1.662
1.672
1.667
1.662
1.662
1.662
1.647
1.623
1.628
1.647
1.647
1.637
1.637
1.652
1.657
1.637
1.637
1.662
1.676
1.676
1.667
1.676
1.691
1.676
1.672
1.681
1.686
1.672
1.662
1.667
1.681
1.691
1.696
1.716
1.75
1.769
1.799
1.838
1.887
1.921
1.935
1.965
1.999
2.004
1.984
1.945
1.911
1.867
1.794
1.716
1.662
1.618
1.579
1.554
1.559
1.579
1.588
1.593
1.623
1.657
1.667
1.657
1.647
1.647
1.647
1.632
1.637
1.657
1.672
1.676
1.676
1.686
1.691
1.676
1.657
1.657
1.657
1.642
1.632
1.637
1.662
1.667
1.667
1.672
1.681
1.672
1.657
1.647
1.652
1.652
1.632
1.632
1.647
1.657
1.657
1.667
1.691
1.701
1.686
1.667
1.672
1.681
1.676
1.667
1.667
1.681
1.676
1.662
1.672
1.696
1.701
1.696
1.691
1.701
1.706
1.686
1.681
1.696
1.696
1.681
1.672
1.681
1.691
1.681
1.681
1.701
1.725
1.73
1.725
1.725
1.735
1.725
1.711
1.711
1.72
1.72
1.711
1.711
1.725
1.74
1.73
1.735
1.75
1.755
1.745
1.735
1.74
1.745
1.725
1.716
1.735
1.755
1.76
1.76
1.764
1.784
1.784
1.774
1.769
1.779
1.774
1.764
1.76
1.76
1.755
1.73
1.716
1.72
1.72
1.72
1.716
1.73
1.735
1.716
1.696
1.691
1.686
1.672
1.652
1.647
1.657
1.657
1.647
1.662
1.676
1.676
1.662
1.647
1.652
1.642
1.623
1.618
1.628
1.628
1.618
1.613
1.623
1.642
1.632
1.628
1.642
1.662
1.657
1.642
1.632
1.642
1.637
1.623
1.618
1.628
1.623
1.618
1.613
1.628
1.642
1.632
1.637
1.652
1.657
1.642
1.637
1.642
1.652
1.642
1.632
1.642
1.652
1.642
1.623
1.618
1.632
1.637
1.628
1.632
1.652
1.657
1.652
1.652
1.667
1.662
1.637
1.628
1.632
1.632
1.628
1.628
1.642
1.657
1.652
1.647
1.657
1.672
1.672
1.662
1.662
1.672
1.662
1.642
1.642
1.662
1.667
1.652
1.642
1.647
1.647
1.637
1.642
1.662
1.667
1.657
1.652
1.657
1.667
1.652
1.637
1.642
1.652
1.647
1.642
1.647
1.662
1.657
1.637
1.632
1.642
1.647
1.642
1.642
1.652
1.657
1.632
1.623
1.632
1.637
1.632
1.628
1.632
1.652
1.647
1.647
1.667
1.686
1.686
1.672
1.667
1.676
1.667
1.647
1.647
1.657
1.652
1.642
1.642
1.657
1.662
1.652
1.652
1.676
1.686
1.681
1.681
