Num1
1.628
1.623
1.647
1.642
1.613
1.618
1.642
1.647
1.642
1.642
1.672
1.696
1.676
1.676
1.716
1.75
1.76
1.764
1.789
1.823
1.813
1.794
1.804
1.808
1.784
1.74
1.711
1.696
1.652
1.579
1.53
1.505
1.476
1.437
1.422
1.452
1.481
1.481
1.5
1.549
1.588
1.608
1.613
1.637
1.672
1.657
1.637
1.647
1.667
1.667
1.647
1.652
1.676
1.676
1.647
1.652
1.676
1.681
1.667
1.662
1.686
1.701
1.676
1.667
1.686
1.696
1.686
1.672
1.686
1.706
1.691
1.672
1.686
1.711
1.711
1.696
1.701
1.725
1.72
1.691
1.696
1.72
1.725
1.716
1.706
1.725
1.735
1.701
1.681
1.696
1.711
1.706
1.696
1.716
1.745
1.73
1.711
1.725
1.745
1.74
1.725
1.725
1.75
1.745
1.72
1.725
1.755
1.764
1.755
1.755
1.779
1.789
1.764
1.755
1.779
1.794
1.784
1.769
1.784
1.804
1.789
1.764
1.779
1.794
1.789
1.779
1.789
1.818
1.818
1.794
1.799
1.823
1.833
1.823
1.813
1.833
1.848
1.818
1.808
1.828
1.843
1.833
1.818
1.828
1.848
1.833
1.804
1.813
1.833
1.823
1.804
1.804
1.818
1.808
1.779
1.769
1.789
1.794
1.774
1.76
1.774
1.779
1.74
1.716
1.725
1.735
1.72
1.701
1.716
1.735
1.716
1.691
1.701
1.716
1.706
1.686
1.686
1.706
1.706
1.676
1.676
1.696
1.701
1.686
1.681
1.701
1.711
1.676
1.667
1.686
1.701
1.691
1.676
1.686
1.711
1.691
1.667
1.676
1.696
1.696
1.676
1.681
1.711
1.711
1.676
1.672
1.691
1.696
1.681
1.676
1.696
1.711
1.686
1.672
1.691
1.706
1.696
1.681
1.696
1.72
1.701
1.681
1.691
1.711
1.711
1.696
1.701
1.725
1.725
1.691
1.686
1.711
1.711
1.696
1.686
1.701
1.716
1.686
1.676
1.696
1.706
1.701
1.686
1.701
1.73
1.72
1.701
1.716
1.735
1.73
1.706
1.701
1.72
1.72
1.696
1.696
1.72
1.725
1.711
1.701
1.716
1.725
1.696
1.681
1.701
1.72
1.716
1.706
1.716
1.74
1.72
1.696
1.696
1.716
1.711
1.696
1.696
1.72
1.725
1.696
1.696
1.72
1.73
1.72
1.711
1.73
1.745
1.716
1.701
1.72
1.74
1.725
1.716
1.73
1.75
1.735
1.711
1.716
1.73
1.725
1.711
1.716
1.74
1.74
1.711
1.711
1.735
1.735
1.72
1.711
1.73
1.745
1.716
1.706
1.725
1.74
1.73
1.716
1.725
1.75
1.735
1.711
1.72
1.745
1.74
1.725
1.725
1.75
1.75
1.72
1.72
1.745
1.755
1.74
1.73
1.75
1.764
1.735
1.725
1.745
1.76
1.745
1.73
1.74
1.76
1.74
1.72
1.73
1.755
1.75
1.735
1.735
1.764
1.76
1.73
1.725
1.745
1.75
1.74
1.73
1.75
1.764
1.74
1.725
1.745
1.76
1.75
1.74
1.75
1.779
1.764
1.74
1.75
1.774
1.769
1.755
1.755
1.784
1.784
1.76
1.76
1.784
1.794
1.779
1.769
1.784
1.799
1.769
1.75
1.769
1.784
1.779
1.764
1.774
1.799
1.784
1.76
1.769
1.789
1.784
1.769
1.769
1.784
1.779
1.74
1.73
1.745
1.745
1.725
1.72
1.745
1.764
1.74
1.73
1.75
1.769
1.76
1.745
1.755
1.774
1.75
1.72
1.73
1.75
1.75
1.735
1.74
1.764
1.769
1.74
1.74
1.764
1.769
1.755
1.745
1.764
1.784
1.76
1.745
1.774
1.799
1.804
1.799
1.823
1.867
1.872
1.867
1.891
1.921
1.931
1.921
1.926
1.945
1.931
1.877
1.843
1.828
1.799
1.745
1.691
1.667
1.642
1.584
1.549
1.554
1.569
1.569
1.569
1.598
1.652
1.667
1.676
1.716
1.76
1.774
1.764
1.769
1.789
1.794
1.764
1.76
1.779
1.789
1.774
1.769
1.789
1.804
1.779
1.76
1.784
1.799
1.794
1.784
1.799
1.823
1.808
1.784
1.799
1.823
1.823
1.808
1.813
1.838
1.843
1.813
1.808
1.828
1.833
1.818
1.813
1.838
1.852
1.828
1.808
1.828
1.843
1.833
1.818
1.828
1.857
1.843
1.818
1.828
1.852
1.848
1.828
1.823
1.848
1.848
1.818
1.818
1.843
1.852
1.848
1.843
1.862
1.882
1.857
1.843
1.857
1.877
1.867
1.857
1.867
1.896
1.882
1.862
1.867
1.887
1.887
1.867
1.867
1.891
1.891
1.862
1.857
1.882
1.891
1.877
1.867
1.887
1.901
1.872
1.857
1.877
1.891
1.887
1.872
1.887
1.916
1.906
1.887
1.891
1.911
1.911
1.891
1.882
1.901
1.891
1.852
1.843
1.857
1.857
1.843
1.833
1.852
1.872
1.843
1.823
1.833
1.843
1.818
1.789
1.789
1.799
1.774
1.745
1.745
1.764
1.76
1.74
1.735
1.75
1.75
1.716
1.716
1.74
1.75
1.735
1.72
1.73
1.745
1.716
1.696
1.706
1.716
1.706
1.696
1.711
1.74
1.725
1.701
1.711
1.735
1.735
1.72
1.716
1.74
1.74
1.716
1.716
1.735
1.74
1.72
1.711
1.725
1.74
1.716
1.696
1.716
1.74
1.735
1.72
1.73
1.76
1.745
1.72
1.73
1.75
1.755
1.74
1.74
1.769
1.774
1.745
1.74
1.76
1.769
1.755
1.745
1.764
1.779
1.755
1.74
1.755
1.774
1.769
1.755
1.764
1.789
1.774
1.75
1.764
1.789
1.789
1.769
1.764
1.784
1.784
1.745
1.735
1.755
1.769
1.755
1.75
1.769
1.789
1.764
1.745
1.764
1.779
1.769
1.755
1.76
1.784
1.764
1.735
1.74
1.76
1.76
1.745
1.74
1.769
1.769
1.74
1.735
1.755
1.76
1.745
1.735
1.755
1.774
1.745
1.725
1.74
1.755
1.745
1.725
1.735
1.76
1.74
1.716
1.725
1.75
1.745
1.73
1.725
1.745
1.75
1.72
1.716
1.74
1.745
1.73
1.716
1.735
1.755
1.725
1.706
1.72
1.74
1.73
1.72
1.73
1.755
1.74
1.716
1.72
1.745
1.745
1.73
1.725
1.75
1.75
1.72
1.716
1.735
1.745
1.735
1.725
1.74
1.76
1.73
1.711
1.72
1.735
1.725
1.711
1.716
1.74
1.73
1.706
1.716
1.74
1.745
1.725
1.725
1.75
1.75
1.72
1.716
1.74
1.75
1.735
1.725
1.74
1.76
1.73
1.716
1.73
1.745
1.735
1.72
1.73
1.755
1.74
1.711
1.716
1.735
1.74
1.72
1.716
1.745
1.75
1.72
1.716
1.735
1.745
1.73
1.72
1.74
1.76
1.735
1.716
1.73
1.745
1.74
1.72
1.73
1.75
1.74
1.711
1.72
1.745
1.745
1.73
1.725
1.745
1.75
1.72
1.72
1.74
1.75
1.735
1.72
1.74
1.755
1.735
1.716
1.735
1.755
1.745
1.735
1.745
1.769
1.76
1.73
1.73
1.75
1.745
1.73
1.735
1.76
1.764
1.735
1.73
1.76
1.769
1.76
1.75
1.764
1.784
1.76
1.74
1.76
1.774
1.769
1.755
1.764
1.789
1.779
1.75
1.75
1.769
1.769
1.755
1.75
1.774
1.779
1.75
1.74
1.76
1.769
1.745
1.725
1.74
1.755
1.72
1.701
1.716
1.735
1.725
1.711
1.716
1.74
1.73
1.706
1.716
1.74
1.74
1.725
1.72
1.745
1.745
1.711
1.696
1.716
1.72
1.711
1.701
1.72
1.745
1.725
1.706
1.725
1.74
1.73
1.716
1.725
1.755
1.745
1.72
1.74
1.774
1.789
1.794
1.813
1.857
1.882
1.862
1.867
1.896
1.906
1.891
1.872
1.877
1.872
1.813
1.76
1.735
1.711
1.657
1.598
1.559
1.549
1.515
1.481
1.486
1.525
1.54
1.549
1.574
1.632
1.672
1.667
1.681
1.716
1.73
1.72
1.711
1.73
1.75
1.725
1.716
1.735
1.76
1.755
1.735
1.74
1.764
1.75
1.725
1.735
1.76
1.764
1.75
1.755
1.779
1.784
1.75
1.74
1.76
1.769
1.755
1.75
1.769
1.794
1.774
1.76
1.779
1.799
1.794
1.774
1.774
1.794
1.779
1.745
1.75
1.774
1.784
1.774
1.774
1.799
1.804
1.774
1.769
1.789
1.799
1.784
1.769
1.789
1.813
1.789
1.769
1.784
1.799
1.794
1.779
1.789
1.818
1.808
1.784
1.794
1.818
1.818
1.804
1.808
1.833
1.838
1.804
1.804
1.828
1.838
1.828
1.818
1.838
1.857
1.838
1.823
1.843
1.867
1.862
1.848
1.857
1.882
1.872
1.848
1.852
1.877
1.877
1.862
1.862
1.891
1.896
1.872
1.862
1.877
1.887
1.867
1.852
1.867
1.877
1.848
1.823
1.838
1.852
1.838
1.818
1.818
1.833
1.808
1.774
1.774
1.794
1.794
1.774
1.769
1.789
1.789
1.75
1.73
1.745
1.745
1.725
1.716
1.74
1.764
1.74
1.72
1.735
1.745
1.73
1.706
1.701
1.72
1.706
1.676
1.681
1.706
1.706
1.691
1.691
1.72
1.73
1.701
1.691
1.711
1.72
1.706
1.696
1.711
1.73
1.711
1.696
1.711
1.73
1.72
1.706
1.711
1.735
1.72
1.696
1.706
1.73
1.735
1.716
1.716
1.74
1.74
1.711
1.701
1.72
1.725
1.711
1.701
1.72
1.74
1.716
1.691
1.711
1.73
1.72
1.706
1.711
1.735
1.725
1.691
1.696
1.716
1.72
1.706
1.706
1.73
1.74
1.716
1.711
1.735
1.74
1.725
1.706
1.716
1.73
1.706
1.691
1.711
1.73
1.725
1.711
1.716
1.74
1.725
1.696
1.701
1.725
1.725
1.711
1.706
1.73
1.73
1.696
1.691
1.711
1.72
1.711
1.701
1.72
1.735
1.711
1.691
1.706
1.72
1.716
1.696
1.701
1.73
1.725
1.701
1.706
1.73
1.73
1.716
1.711
1.735
1.74
1.706
1.696
1.716
1.725
1.711
1.696
1.716
1.74
1.716
1.701
1.72
1.74
1.73
1.711
1.716
1.74
1.725
1.691
1.691
1.711
1.711
1.696
1.691
1.72
1.73
1.701
1.696
1.72
1.73
1.716
1.706
1.72
1.74
1.716
1.691
1.711
1.735
1.73
1.716
1.72
1.745
1.735
1.706
1.711
1.725
1.725
1.706
1.701
1.72
1.73
1.701
1.696
1.72
1.735
1.725
1.711
1.725
1.745
1.72
1.701
1.711
1.73
1.725
1.711
1.716
1.745
1.735
1.706
1.711
1.73
1.73
1.711
1.711
1.735
1.745
1.716
1.706
1.73
1.74
1.73
1.716
1.735
1.755
1.73
1.716
1.73
1.75
1.745
1.73
1.735
1.76
1.75
1.72
1.725
1.745
1.755
1.74
1.74
1.764
1.774
1.74
1.735
1.755
1.76
1.75
1.735
1.755
1.779
1.76
1.75
1.769
1.784
1.774
1.755
1.755
1.779
1.769
1.74
1.745
1.769
1.774
1.755
1.755
1.779
1.784
1.75
1.74
1.76
1.764
1.745
1.725
1.735
1.75
1.72
1.696
1.706
1.72
1.716
1.701
1.711
1.73
1.72
1.691
1.696
1.716
1.72
1.701
1.701
1.725
1.735
1.706
1.696
1.711
1.72
1.701
1.686
1.701
1.72
1.696
1.676
1.696
1.716
1.711
1.696
1.706
1.735
1.73
1.706
1.72
1.755
1.769
1.769
1.784
1.828
1.857
1.843
1.843
1.867
1.877
1.862
1.838
1.833
1.828
1.769
1.711
1.686
1.662
1.603
1.54
1.5
1.491
1.466
1.432
1.447
1.486
1.52
1.544
1.574
1.637
1.672
1.662
1.667
1.696
1.711
1.701
1.686
1.706
1.725
1.701
1.681
1.696
1.711
1.701
1.686
1.691
1.72
1.711
1.686
1.691
1.72
1.72
1.701
1.696
1.72
1.725
1.696
1.686
1.711
1.72
1.711
1.701
1.72
1.745
1.725
1.706
1.725
1.745
1.74
1.725
1.735
1.76
1.745
1.711
1.706
1.725
1.725
1.706
1.701
1.725
1.735
1.711
1.706
1.725
1.74
1.725
1.716
1.73
1.75
1.725
1.706
1.725
1.75
1.75
1.735
1.745
1.774
1.764
1.735
1.735
1.755
1.755
1.735
1.735
1.76
1.769
1.74
1.74
1.764
1.784
1.769
1.76
1.784
1.804
1.779
1.76
1.779
1.799
1.794
1.779
1.789
1.818
1.813
1.784
1.789
1.813
1.818
1.799
1.794
1.813
1.818
1.779
1.764
1.784
1.789
1.769
1.755
1.774
1.794
1.774
1.75
1.76
1.769
1.755
1.725
1.72
1.735
1.72
1.681
1.676
1.691
1.686
1.667
1.647
1.662
1.662
1.623
1.608
1.628
1.632
1.618
1.603
1.618
1.632
1.608
1.584
1.593
1.603
1.598
1.579
1.584
1.603
1.593
1.564
1.564
1.584
1.584
1.569
1.559
1.579
1.584
1.559
1.549
1.574
1.588
1.574
1.559
1.574
1.593
1.564
1.54
1.549
1.564
1.559
1.549
1.554
1.584
1.579
1.549
1.554
1.574
1.574
1.554
1.549
1.574
1.584
1.559
1.549
1.579
1.593
1.579
1.564
1.579
1.593
1.569
1.544
1.559
1.574
1.574
1.559
1.564
1.593
1.584
1.554
1.554
1.574
1.574
1.554
1.554
1.574
1.588
1.564
1.554
1.569
1.579
1.564
1.544
1.559
1.584
1.564
1.549
1.559
1.579
1.574
1.559
1.564
1.588
1.579
1.549
1.549
1.574
1.579
1.559
1.549
1.569
1.579
1.554
1.549
1.574
1.584
1.569
1.554
1.569
1.584
1.564
1.54
1.554
1.579
1.574
1.559
1.564
1.584
1.574
1.544
1.549
1.569
1.574
1.559
1.559
1.584
1.593
1.559
1.544
1.564
1.574
1.559
1.544
1.559
1.584
1.564
1.544
1.559
1.584
1.574
1.559
1.564
1.588
1.584
1.554
1.554
1.574
1.574
1.554
1.544
1.569
1.574
1.544
1.54
1.564
1.579
1.574
1.564
1.579
1.603
1.579
1.554
1.564
1.579
1.574
1.554
1.559
1.588
1.584
1.554
1.559
1.584
1.588
1.569
1.559
1.574
1.579
1.549
1.535
1.554
1.564
1.554
1.544
1.564
1.588
1.564
1.54
1.554
1.574
1.569
1.554
1.554
1.584
1.579
1.554
1.559
1.584
1.588
1.579
1.574
1.593
1.603
1.574
1.564
1.584
1.598
1.588
1.584
1.603
1.623
1.603
1.579
1.593
1.608
1.598
1.579
1.584
1.618
1.613
1.584
1.588
1.613
1.618
1.598
1.588
1.618
1.623
1.598
1.593
1.618
1.632
1.623
1.613
1.628
1.647
1.623
1.598
1.608
1.628
1.618
1.598
1.593
1.613
1.598
1.564
1.564
1.584
1.584
1.569
1.569
1.593
1.598
1.569
1.554
1.574
1.584
1.574
1.554
1.569
1.593
1.574
1.554
1.569
1.584
1.579
1.559
1.564
1.588
1.584
1.554
1.559
1.579
1.584
1.564
1.559
1.579
1.588
1.559
1.554
1.574
1.593
1.588
1.584
1.613
1.642
1.637
1.632
1.662
1.696
1.701
1.696
1.706
1.735
1.725
1.696
1.686
1.696
1.676
1.628
1.584
1.559
1.52
1.447
1.388
1.373
1.359
1.339
1.334
1.373
1.422
1.437
1.457
1.505
1.549
1.564
1.559
1.569
1.598
1.593
1.564
1.569
1.598
1.603
1.593
1.593
1.623
1.637
1.613
1.608
1.628
1.637
1.623
1.608
1.618
1.642
1.618
1.598
1.613
1.637
1.642
1.628
1.637
1.662
1.657
1.628
1.628
1.652
1.652
1.637
1.632
1.662
1.676
1.652
1.642
1.667
1.676
1.662
1.647
1.657
1.676
1.652
1.632
1.652
1.672
1.672
1.657
1.662
1.686
1.676
1.647
1.652
1.676
1.686
1.681
1.681
1.711
1.72
1.691
1.681
1.701
1.711
1.701
1.686
1.706
1.73
1.711
1.696
1.711
1.73
1.725
1.711
1.716
1.745
1.745
1.716
1.725
1.75
1.76
1.755
1.75
1.779
1.789
1.764
1.755
1.779
1.789
1.779
1.764
1.779
1.804
1.789
1.774
1.789
1.808
1.808
1.789
1.789
1.813
1.799
1.764
1.764
1.779
1.779
1.755
1.745
1.764
1.769
1.735
1.72
1.735
1.74
1.725
1.711
1.72
1.73
1.701
1.667
1.672
1.681
1.662
1.637
1.637
1.657
1.652
1.623
1.628
1.647
1.647
1.628
1.613
1.632
1.637
1.608
1.598
1.613
1.628
1.618
1.608
1.623
1.647
1.623
1.593
1.603
1.623
1.618
1.598
1.603
1.628
1.623
1.593
1.598
1.623
1.632
1.618
1.608
1.632
1.637
1.608
1.598
1.618
1.632
1.623
1.608
1.628
1.652
1.637
1.623
1.637
1.652
1.652
1.637
1.642
1.672
1.667
1.632
1.637
1.657
1.662
1.642
1.642
1.662
1.672
1.647
1.637
1.657
1.667
1.652
1.637
1.657
1.676
1.662
1.642
1.662
1.676
1.676
1.657
1.662
1.681
1.676
1.642
1.642
1.667
1.672
1.657
1.647
1.667
1.676
1.647
1.642
1.667
1.676
1.667
1.652
1.672
1.691
1.672
1.647
1.657
1.676
1.672
1.652
1.652
1.676
1.672
1.642
1.642
1.672
1.681
1.662
1.662
1.686
1.706
1.672
1.657
1.676
1.686
1.672
1.652
1.662
1.681
1.662
1.642
1.652
1.676
1.676
1.662
1.667
1.691
1.681
1.647
1.647
1.672
1.681
1.672
1.672
1.701
1.711
1.686
1.676
1.691
1.701
1.681
1.662
1.672
1.696
1.676
1.657
1.672
1.691
1.686
1.672
1.676
1.701
1.696
1.667
1.672
1.696
1.696
1.676
1.667
1.691
1.696
1.667
1.662
1.691
1.711
1.706
1.701
1.72
1.745
1.725
1.701
1.711
1.725
1.72
1.706
1.711
1.74
1.74
1.711
1.716
1.735
1.735
1.72
1.711
1.73
1.745
1.716
1.711
1.73
1.745
1.73
1.716
1.73
1.745
1.72
1.691
1.701
1.716
1.706
1.686
1.681
1.706
1.696
1.667
1.672
1.696
1.701
1.686
1.676
1.701
1.706
1.672
1.657
1.672
1.681
1.672
1.657
1.676
1.701
1.681
1.662
1.676
1.696
1.691
1.676
1.681
1.711
1.706
1.676
1.676
1.701
1.706
1.691
1.686
1.716
1.735
1.716
1.72
1.755
1.789
1.794
1.794
1.818
1.848
1.828
1.808
1.818
1.828
1.808
1.774
1.755
1.75
1.711
1.647
1.598
1.574
1.53
1.481
1.452
1.461
1.476
1.466
1.481
1.53
1.574
1.598
1.613
1.647
1.691
1.681
1.672
1.691
1.716
1.716
1.701
1.706
1.735
1.73
1.706
1.711
1.735
1.745
1.735
1.73
1.75
1.76
1.73
1.716
1.735
1.745
1.735
1.72
1.735
1.764
1.745
1.725
1.745
1.769
1.769
1.75
1.755
1.774
1.769
1.735
1.73
1.755
1.76
1.745
1.74
1.764
1.779
1.75
1.745
1.769
1.784
1.774
1.76
1.774
1.799
1.779
1.76
1.769
1.789
1.784
1.769
1.774
1.808
1.808
1.789
1.794
1.818
1.818
1.808
1.794
1.818
1.823
1.794
1.779
1.804
1.823
1.818
1.808
1.823
1.843
1.823
1.799
1.808
1.828
1.823
1.813
1.828
1.862
1.867
1.848
1.852
1.877
1.887
1.872
1.862
1.887
1.901
1.872
1.862
1.882
1.896
1.882
1.862
1.872
1.891
1.867
1.843
1.857
1.877
1.872
1.852
1.852
1.867
1.857
1.818
1.813
1.828
1.828
1.804
1.794
1.813
1.823
1.784
1.764
1.774
1.779
1.755
1.73
1.735
1.75
1.72
1.696
1.706
1.72
1.716
1.696
1.691
1.716
1.711
1.676
1.676
1.696
1.701
1.681
1.672
1.691
1.701
1.672
1.657
1.676
1.691
1.681
1.662
1.676
1.696
1.672
1.652
1.662
1.686
1.681
1.667
1.667
1.691
1.686
1.652
1.652
1.676
1.686
1.676
1.676
1.706
1.72
1.696
1.681
1.696
1.701
1.686
1.667
1.676
1.701
1.686
1.667
1.686
1.716
1.711
1.696
1.701
1.725
1.716
1.681
1.676
1.701
1.706
1.691
1.681
1.706
1.716
1.686
1.676
1.696
1.711
1.701
1.686
1.701
1.725
1.706
1.686
1.696
1.711
1.706
1.691
1.696
1.72
1.72
1.696
1.701
1.725
1.725
1.706
1.696
1.716
1.72
1.691
1.681
1.701
1.716
1.706
1.691
1.701
1.725
1.701
1.681
1.696
1.716
1.711
1.696
1.701
1.73
1.725
1.696
1.691
1.716
1.716
1.701
1.691
1.716
1.73
1.706
1.696
1.716
1.73
1.72
1.706
1.716
1.735
1.716
1.696
1.706
1.73
1.72
1.706
1.711
1.735
1.73
1.701
1.701
1.725
1.725
1.706
1.696
1.716
1.72
1.691
1.681
1.701
1.72
1.711
1.701
1.72
1.745
1.725
1.706
1.72
1.74
1.735
1.716
1.72
1.745
1.74
1.706
1.711
1.73
1.735
1.72
1.711
1.73
1.74
1.711
1.696
1.72
1.735
1.725
1.716
1.73
1.755
1.735
1.711
1.716
1.735
1.725
1.706
1.711
1.735
1.735
1.706
1.711
1.735
1.74
1.72
1.716
1.735
1.75
1.725
1.716
1.74
1.76
1.755
1.74
1.76
1.779
1.76
1.74
1.755
1.769
1.76
1.74
1.735
1.76
1.755
1.725
1.725
1.745
1.75
1.735
1.73
1.755
1.76
1.725
1.711
1.725
1.735
1.72
1.701
1.711
1.73
1.706
1.681
1.691
1.711
1.706
1.686
1.686
1.711
1.706
1.676
1.676
1.701
1.706
1.691
1.686
1.711
1.716
1.686
1.672
1.696
1.706
1.691
1.681
1.696
1.72
1.701
1.681
1.696
1.716
1.716
1.706
1.72
1.755
1.76
1.74
1.76
1.799
1.823
1.823
1.828
1.857
1.872
1.848
1.843
1.852
1.848
1.808
1.76
1.735
1.716
1.657
1.588
1.554
1.525
1.481
1.447
1.447
1.481
1.491
1.491
1.525
1.588
1.628
1.642
1.662
1.696
1.711
1.686
1.676
1.701
1.716
1.706
1.696
1.711
1.735
1.716
1.696
1.716
1.735
1.735
1.72
1.725
1.755
1.75
1.716
1.716
1.74
1.74
1.725
1.72
1.75
1.764
1.74
1.735
1.755
1.764
1.745
1.725
1.74
1.76
1.735
1.716
1.73
1.75
1.75
1.735
1.74
1.769
1.76
1.735
1.735
1.76
1.769
1.755
1.75
1.769
1.779
1.75
1.74
1.764
1.774
1.764
1.755
1.769
1.794
1.774
1.75
1.764
1.784
1.784
1.769
1.774
1.808
1.804
1.779
1.779
1.804
1.808
1.794
1.794
1.823
1.838
1.808
1.804
1.828
1.838
1.823
1.808
1.823
1.843
1.828
1.808
1.828
1.852
1.852
1.838
1.843
1.867
1.862
1.833
1.838
1.862
1.872
1.852
1.848
1.872
1.877
1.848
1.838
1.857
1.867
1.848
1.833
1.838
1.852
1.828
1.799
1.804
1.813
1.799
1.774
1.774
1.794
1.779
1.74
1.735
1.755
1.745
1.72
1.711
1.73
1.735
1.701
1.691
1.706
1.711
1.696
1.681
1.686
1.701
1.676
1.652
1.667
1.686
1.681
1.662
1.662
1.691
1.681
1.657
1.662
1.686
1.691
1.672
1.672
1.691
1.701
1.672
1.657
1.672
1.686
1.672
1.657
1.672
1.691
1.667
1.642
1.657
1.676
1.672
1.657
1.662
1.691
1.681
1.652
1.657
1.676
1.681
1.667
1.657
1.681
1.691
1.662
1.652
1.667
1.672
1.657
1.642
1.657
1.681
1.667
1.647
1.667
1.691
1.686
1.662
1.662
1.686
1.676
1.652
1.657
1.681
1.691
1.681
1.676
1.706
1.716
1.691
1.686
1.706
1.72
1.706
1.691
1.706
1.72
1.691
1.662
1.672
1.691
1.686
1.672
1.681
1.716
1.711
1.686
1.686
1.706
1.711
1.691
1.681
1.701
1.711
1.676
1.667
1.686
1.696
1.681
1.667
1.676
1.701
1.686
1.667
1.681
1.701
1.696
1.676
1.676
1.691
1.681
1.642
1.647
1.667
1.667
1.657
1.652
1.686
1.696
1.667
1.657
1.676
1.686
1.672
1.657
1.667
1.691
1.667
1.647
1.662
1.676
1.672
1.657
1.662
1.681
1.667
1.637
1.637
1.662
1.662
1.647
1.647
1.676
1.691
1.667
1.657
1.676
1.681
1.667
1.652
1.662
1.681
1.662
1.647
1.667
1.686
1.681
1.667
1.672
1.696
1.686
1.657
1.667
1.696
1.701
1.686
1.686
1.711
1.716
1.686
1.676
1.696
1.706
1.696
1.686
1.701
1.72
1.706
1.686
1.701
1.72
1.711
1.691
1.691
1.716
1.711
1.681
1.686
1.701
1.696
1.672
1.662
1.681
1.696
1.667
1.662
1.686
1.706
1.691
1.672
1.681
1.691
1.657
1.628
1.637
1.662
1.657
1.647
1.657
1.691
1.686
1.657
1.657
1.672
1.672
1.647
1.642
1.672
1.686
1.657
1.647
1.672
1.681
1.672
1.662
1.676
1.701
1.681
1.662
1.681
1.701
1.701
1.686
1.691
1.72
1.72
1.701
1.716
1.75
1.769
1.774
1.789
1.828
1.848
1.823
1.813
1.838
1.843
1.813
1.779
1.76
1.745
1.681
1.623
1.588
1.564
1.51
1.452
1.432
1.447
1.442
1.427
1.457
1.515
1.554
1.579
1.608
1.652
1.676
1.657
1.652
1.676
1.691
1.681
1.681
1.706
1.735
1.72
1.701
1.72
1.735
1.73
1.711
1.72
1.74
1.735
1.706
1.711
1.735
1.74
1.72
1.716
1.74
1.75
1.72
1.711
1.735
1.75
1.735
1.72
1.735
1.75
1.73
1.716
1.735
1.755
1.755
1.74
1.745
1.774
1.764
1.735
1.735
1.76
1.764
1.75
1.75
1.779
1.789
1.76
1.75
1.769
1.779
1.76
1.745
1.76
1.779
1.755
1.74
1.755
1.774
1.774
1.764
1.774
1.804
1.799
1.774
1.784
1.804
1.804
1.789
1.784
1.804
1.813
1.789
1.784
1.818
1.833
1.823
1.818
1.833
1.852
1.828
1.804
1.813
1.833
1.828
1.818
1.833
1.862
1.862
1.843
1.848
1.877
1.877
1.857
1.852
1.872
1.877
1.848
1.833
1.848
1.857
1.838
1.828
1.843
1.857
1.838
1.813
1.828
1.838
1.823
1.804
1.804
1.828
1.813
1.779
1.774
1.789
1.784
1.76
1.745
1.755
1.75
1.716
1.701
1.716
1.72
1.706
1.686
1.701
1.711
1.686
1.667
1.672
1.686
1.681
1.662
1.662
1.696
1.691
1.667
1.672
1.691
1.686
1.672
1.662
1.681
1.686
1.652
1.647
1.672
1.686
1.676
1.667
1.681
1.701
1.672
1.652
1.662
1.681
1.676
1.662
1.672
1.701
1.696
1.672
1.676
1.696
1.696
1.672
1.667
1.691
1.696
1.667
1.662
1.686
1.701
1.686
1.672
1.686
1.706
1.681
1.657
1.672
1.691
1.691
1.681
1.696
1.73
1.725
1.701
1.711
1.73
1.73
1.706
1.691
1.711
1.711
1.681
1.672
1.691
1.701
1.691
1.676
1.696
1.711
1.686
1.672
1.686
1.701
1.696
1.676
1.681
1.701
1.696
1.676
1.686
1.711
1.72
1.706
1.701
1.725
1.725
1.686
1.672
1.691
1.701
1.691
1.686
1.706
1.725
1.701
1.676
1.686
1.701
1.691
1.667
1.676
1.701
1.696
1.672
1.676
1.696
1.696
1.681
1.676
1.706
1.716
1.686
1.681
1.701
1.711
1.686
1.652
1.647
1.657
1.632
1.618
1.647
1.681
1.686
1.681
1.696
1.725
1.711
1.676
1.672
1.691
1.691
1.681
1.686
1.716
1.73
1.706
1.701
1.72
1.725
1.711
1.701
1.716
1.735
1.716
1.701
1.716
1.73
1.72
1.706
1.711
1.735
1.73
1.706
1.711
1.735
1.735
1.72
1.72
1.745
1.755
1.725
1.716
1.735
1.74
1.725
1.706
1.72
1.73
1.701
1.681
1.691
1.701
1.691
1.662
1.667
1.686
1.676
1.647
1.657
1.681
1.681
1.667
1.657
1.676
1.681
1.657
1.652
1.672
1.681
1.672
1.657
1.681
1.696
1.672
1.652
1.672
1.691
1.686
1.676
1.681
1.711
1.696
1.676
1.686
1.711
1.72
1.711
1.725
1.769
1.789
1.779
1.784
1.818
1.838
1.828
1.818
1.828
1.838
1.789
1.74
1.716
1.696
1.642
1.579
1.535
1.51
1.457
1.398
1.388
1.403
1.413
1.417
1.442
1.5
1.549
1.559
1.588
1.642
1.672
1.667
1.662
1.681
1.701
1.681
1.667
1.686
1.711
1.706
1.696
1.706
1.735
1.72
1.696
1.701
1.725
1.725
1.711
1.706
1.73
1.73
1.701
1.696
1.716
1.725
1.711
1.701
1.72
1.74
1.716
1.696
1.716
1.735
1.73
1.711
1.725
1.755
1.75
1.725
1.74
1.764
1.764
1.745
1.74
1.76
1.764
1.735
1.73
1.75
1.76
1.74
1.73
1.75
1.769
1.74
1.725
1.745
1.769
1.764
1.75
1.76
1.784
1.774
1.745
1.75
1.769
1.774
1.76
1.764
1.794
1.804
1.779
1.779
1.808
1.818
1.808
1.804
1.818
1.838
1.808
1.794
1.813
1.833
1.828
1.813
1.818
1.848
1.838
1.818
1.828
1.848
1.848
1.833
1.833
1.862
1.872
1.843
1.833
1.852
1.852
1.833
1.818
1.833
1.843
1.818
1.794
1.808
1.823
1.808
1.789
1.799
1.818
1.799
1.764
1.76
1.769
1.76
1.73
1.716
1.735
1.73
1.701
1.696
1.72
1.725
1.706
1.686
1.696
1.706
1.676
1.652
1.667
1.681
1.676
1.657
1.662
1.681
1.667
1.637
1.642
1.662
1.657
1.637
1.637
1.662
1.667
1.637
1.632
1.657
1.667
1.652
1.642
1.667
1.686
1.667
1.647
1.667
1.681
1.672
1.657
1.662
1.681
1.672
1.647
1.657
1.686
1.686
1.667
1.662
1.686
1.686
1.652
1.642
1.667
1.676
1.662
1.652
1.672
1.696
1.676
1.662
1.676
1.691
1.676
1.657
1.667
1.691
1.676
1.652
1.657
1.681
1.686
1.672
1.672
1.701
1.701
1.667
1.657
1.676
1.676
1.662
1.647
1.672
1.691
1.667
1.657
1.676
1.696
1.686
1.672
1.681
1.706
1.691
1.667
1.676
1.691
1.686
1.662
1.657
1.676
1.681
1.647
1.647
1.672
1.686
1.672
1.662
1.686
1.706
1.681
1.667
1.686
1.701
1.696
1.676
1.686
1.711
1.701
1.676
1.691
1.716
1.72
1.701
1.706
1.73
1.73
1.701
1.696
1.716
1.72
1.701
1.691
1.716
1.73
1.711
1.696
1.711
1.72
1.706
1.681
1.681
1.691
1.672
1.637
1.637
1.657
1.657
1.642
1.642
1.672
1.676
1.642
1.642
1.662
1.672
1.652
1.642
1.657
1.676
1.652
1.637
1.657
1.672
1.662
1.647
1.652
1.672
1.657
1.632
1.637
1.662
1.667
1.657
1.662
1.691
1.691
1.662
1.662
1.691
1.711
1.711
1.72
1.755
1.789
1.779
1.779
1.799
1.823
1.813
1.794
1.794
1.799
1.755
1.696
1.657
1.628
1.569
1.496
1.442
1.417
1.393
1.354
1.359
1.398
1.432
1.447
1.471
1.525
1.574
1.574
1.584
1.618
1.647
1.652
1.652
1.667
1.696
1.681
1.662
1.672
1.696
1.691
1.672
1.672
1.696
1.701
1.672
1.667
1.691
1.696
1.676
1.672
1.691
1.711
1.686
1.672
1.691
1.706
1.696
1.681
1.691
1.716
1.706
1.686
1.696
1.716
1.716
1.701
1.696
1.72
1.72
1.686
1.681
1.711
1.72
1.716
1.711
1.73
1.745
1.72
1.701
1.716
1.735
1.725
1.711
1.72
1.75
1.74
1.72
1.73
1.75
1.75
1.73
1.735
1.769
1.774
1.75
1.75
1.774
1.779
1.764
1.75
1.769
1.784
1.76
1.75
1.769
1.789
1.784
1.774
1.794
1.823
1.813
1.789
1.799
1.823
1.818
1.804
1.804
1.828
1.833
1.804
1.808
1.833
1.848
1.833
1.828
1.848
1.857
1.833
1.813
1.823
1.833
1.818
1.799
1.808
1.828
1.808
1.779
1.784
1.799
1.789
1.764
1.76
1.774
1.76
1.72
1.711
1.72
1.72
1.701
1.681
1.696
1.701
1.672
1.652
1.662
1.672
1.652
1.628
1.632
1.652
1.632
1.608
1.618
1.637
1.632
1.613
1.613
1.637
1.637
1.608
1.603
1.623
1.628
1.613
1.603
1.623
1.642
1.613
1.598
1.618
1.637
1.628
1.618
1.628
1.652
1.632
1.608
1.618
1.642
1.637
1.618
1.623
1.647
1.652
1.623
1.623
1.647
1.647
1.632
1.623
1.642
1.657
1.632
1.623
1.642
1.657
1.647
1.632
1.642
1.667
1.647
1.628
1.632
1.652
1.647
1.632
1.632
1.657
1.657
1.632
1.637
1.662
1.672
1.657
1.647
1.662
1.672
1.642
1.628
1.647
1.672
1.667
1.657
1.676
1.706
1.691
1.662
1.672
1.686
1.676
1.657
1.652
1.676
1.676
1.652
1.652
1.676
1.686
1.672
1.667
1.691
1.701
1.676
1.662
1.681
1.691
1.672
1.647
1.647
1.657
1.632
1.603
1.608
1.623
1.613
1.598
1.608
1.642
1.647
1.623
1.618
1.642
1.642
1.623
1.608
1.623
1.632
1.603
1.593
1.613
1.623
1.618
1.603
1.613
1.642
1.628
1.608
1.618
1.637
1.632
1.613
1.613
1.637
1.632
1.608
1.613
1.647
1.662
1.652
1.652
1.686
1.711
1.696
1.691
1.716
1.73
1.72
1.706
1.711
1.725
1.701
1.662
1.647
1.642
1.613
1.554
1.515
1.491
1.442
1.378
1.349
1.359
1.369
1.369
1.393
1.457
1.51
1.52
1.544
1.588
1.618
1.618
1.603
1.618
1.637
1.618
1.598
1.618
1.647
1.652
1.642
1.652
1.686
1.686
1.662
1.657
1.681
1.681
1.662
1.647
1.672
1.686
1.662
1.652
1.672
1.691
1.681
1.672
1.686
1.716
1.706
1.686
1.701
1.72
1.716
1.701
1.701
1.72
1.716
1.681
1.681
1.701
1.706
1.691
1.686
1.711
1.725
1.701
1.691
1.711
1.725
1.716
1.701
1.716
1.745
1.73
1.711
1.725
1.75
1.75
1.735
1.74
1.764
1.764
1.735
1.735
1.76
1.769
1.755
1.75
1.769
1.784
1.76
1.75
1.774
1.789
1.779
1.769
1.789
1.818
1.799
1.779
1.789
1.813
1.808
1.794
1.799
1.833
1.833
1.808
1.813
1.838
1.848
1.828
1.823
1.843
1.852
1.828
1.813
1.833
1.843
1.833
1.813
1.818
1.838
1.813
1.784
1.794
1.804
1.794
1.764
1.76
1.774
1.76
1.716
1.711
1.72
1.72
1.696
1.676
1.686
1.686
1.652
1.637
1.657
1.662
1.652
1.637
1.652
1.676
1.652
1.628
1.632
1.647
1.637
1.618
1.618
1.647
1.642
1.613
1.613
1.637
1.637
1.618
1.603
1.623
1.632
1.603
1.593
1.613
1.628
1.613
1.603
1.623
1.647
1.628
1.608
1.623
1.642
1.642
1.628
1.632
1.662
1.657
1.628
1.628
1.647
1.642
1.623
1.608
1.628
1.632
1.608
1.608
1.637
1.662
1.662
1.647
1.662
1.686
1.667
1.647
1.662
1.681
1.681
1.667
1.667
1.691
1.686
1.652
1.652
1.672
1.676
1.662
1.662
1.686
1.701
1.672
1.662
1.681
1.696
1.681
1.662
1.676
1.701
1.686
1.667
1.691
1.716
1.711
1.691
1.696
1.716
1.711
1.681
1.681
1.696
1.696
1.672
1.657
1.672
1.681
1.642
1.628
1.642
1.647
1.637
1.623
1.637
1.662
1.637
1.618
1.628
1.642
1.642
1.628
1.632
1.657
1.652
1.623
1.623
1.647
1.652
1.637
1.632
1.657
1.672
1.642
1.628
1.642
1.647
1.637
1.623
1.637
1.667
1.652
1.642
1.662
1.691
1.691
1.676
1.686
1.72
1.725
1.706
1.725
1.755
1.769
1.755
1.75
1.764
1.764
1.72
1.691
1.686
1.667
1.618
1.559
1.52
1.496
1.437
1.393
1.393
1.413
1.422
1.432
1.466
1.53
1.559
1.559
1.588
1.628
1.647
1.642
1.642
1.667
1.676
1.647
1.637
1.657
1.676
1.672
1.662
1.681
1.706
1.691
1.676
1.691
1.706
1.696
1.676
1.681
1.706
1.706
1.676
1.686
1.711
1.706
1.696
1.686
1.711
1.72
1.691
1.681
1.706
1.716
1.706
1.696
1.716
1.735
1.72
1.696
1.716
1.735
1.735
1.716
1.72
1.745
1.735
1.701
1.706
1.725
1.73
1.716
1.711
1.73
1.74
1.716
1.706
1.73
1.745
1.735
1.73
1.75
1.774
1.755
1.74
1.76
1.789
1.784
1.769
1.769
1.794
1.789
1.76
1.764
1.789
1.794
1.784
1.784
1.813
1.828
1.804
1.799
1.823
1.838
1.828
1.818
1.838
1.862
1.843
1.823
1.833
1.852
1.843
1.828
1.833
1.857
1.848
1.818
1.818
1.843
1.843
1.818
1.808
1.823
1.833
1.804
1.794
1.808
1.808
1.784
1.764
1.769
1.779
1.745
1.716
1.72
1.73
1.716
1.686
1.686
1.706
1.696
1.667
1.672
1.696
1.691
1.672
1.662
1.676
1.676
1.642
1.628
1.642
1.647
1.628
1.613
1.632
1.657
1.637
1.623
1.637
1.657
1.652
1.632
1.632
1.662
1.652
1.628
1.628
1.657
1.662
1.652
1.652
1.672
1.672
1.637
1.628
1.652
1.662
1.647
1.637
1.657
1.681
1.662
1.642
1.652
1.667
1.662
1.647
1.652
1.686
1.681
1.652
1.657
1.681
1.681
1.667
1.662
1.686
1.696
1.667
1.667
1.696
1.711
1.701
1.686
1.706
1.725
1.706
1.681
1.696
1.716
1.706
1.691
1.696
1.72
1.711
1.681
1.686
1.711
1.706
1.686
1.681
1.701
1.706
1.681
1.672
1.696
1.706
1.696
1.681
1.691
1.701
1.672
1.647
1.657
1.672
1.667
1.647
1.657
1.681
1.672
1.637
1.637
1.657
1.652
1.632
1.632
1.657
1.667
1.642
1.642
1.662
1.676
1.657
1.642
1.652
1.672
1.652
1.632
1.642
1.657
1.647
1.628
1.632
1.662
1.657
1.632
1.642
1.672
1.681
1.672
1.672
1.706
1.72
1.701
1.706
1.74
1.76
1.755
1.745
1.76
1.779
1.75
1.725
1.73
1.725
1.696
1.642
1.608
1.588
1.535
1.466
1.447
1.452
1.452
1.447
1.461
1.515
1.549
1.549
1.569
1.613
1.637
1.632
1.632
1.657
1.681
1.667
1.652
1.672
1.691
1.686
1.667
1.672
1.696
1.686
1.662
1.667
1.686
1.686
1.667
1.662
1.686
1.691
1.667
1.662
1.686
1.696
1.691
1.681
1.701
1.72
1.701
1.681
1.701
1.72
1.711
1.696
1.701
1.72
1.711
1.681
1.686
1.706
1.711
1.691
1.686
1.711
1.72
1.696
1.696
1.725
1.735
1.73
1.716
1.735
1.75
1.725
1.701
1.716
1.735
1.725
1.711
1.716
1.745
1.735
1.711
1.72
1.745
1.75
1.735
1.735
1.76
1.769
1.74
1.735
1.76
1.769
1.76
1.755
1.779
1.799
1.784
1.769
1.789
1.808
1.799
1.789
1.794
1.823
1.808
1.784
1.789
1.813
1.808
1.794
1.794
1.818
1.823
1.794
1.789
1.808
1.813
1.794
1.779
1.789
1.799
1.769
1.745
1.76
1.779
1.764
1.745
1.745
1.764
1.745
1.706
1.701
1.711
1.696
1.672
1.662
1.681
1.681
1.652
1.647
1.667
1.676
1.657
1.642
1.652
1.662
1.632
1.613
1.623
1.642
1.632
1.618
1.628
1.657
1.647
1.618
1.628
1.647
1.647
1.623
1.618
1.642
1.647
1.618
1.618
1.642
1.652
1.637
1.632
1.647
1.667
1.642
1.623
1.637
1.652
1.647
1.632
1.642
1.667
1.652
1.628
1.637
1.662
1.657
1.642
1.642
1.667
1.672
1.647
1.647
1.676
1.686
1.672
1.662
1.676
1.696
1.672
1.652
1.667
1.686
1.676
1.662
1.676
1.706
1.691
1.667
1.681
1.706
1.706
1.696
1.691
1.716
1.716
1.681
1.672
1.691
1.696
1.676
1.662
1.681
1.701
1.681
1.672
1.696
1.716
1.711
1.691
1.691
1.706
1.681
1.642
1.642
1.657
1.652
1.632
1.632
1.662
1.672
1.642
1.637
1.657
1.662
1.642
1.628
1.642
1.657
1.628
1.613
1.632
1.652
1.647
1.632
1.642
1.672
1.662
1.637
1.647
1.672
1.667
1.647
1.647
1.672
1.676
1.647
1.642
1.667
1.681
1.672
1.662
1.686
1.711
1.691
1.691
1.72
1.75
1.75
1.745
1.764
1.789
1.774
1.74
1.73
1.73
1.701
1.647
1.613
1.598
1.559
1.5
1.476
1.486
1.491
1.486
1.491
1.53
1.564
1.564
1.574
1.613
1.642
1.647
1.637
1.652
1.681
1.672
1.652
1.662
1.686
1.681
1.662
1.662
1.686
1.691
1.662
1.662
1.691
1.701
1.691
1.686
1.706
1.716
1.686
1.667
1.681
1.696
1.686
1.672
1.681
1.711
1.701
1.676
1.686
1.706
1.701
1.681
1.681
1.706
1.716
1.691
1.691
1.72
1.73
1.716
1.706
1.72
1.735
1.706
1.691
1.711
1.725
1.716
1.701
1.716
1.74
1.725
1.701
1.711
1.735
1.735
1.716
1.716
1.74
1.745
1.72
1.72
1.75
1.76
1.74
1.735
1.755
1.769
1.75
1.745
1.769
1.789
1.784
1.774
1.789
1.813
1.799
1.769
1.784
1.808
1.813
1.804
1.808
1.838
1.843
1.808
1.804
1.823
1.828
1.813
1.799
1.818
1.838
1.808
1.799
1.818
1.833
1.823
1.804
1.808
1.823
1.799
1.764
1.764
1.779
1.764
1.74
1.735
1.76
1.755
1.72
1.711
1.725
1.725
1.701
1.686
1.696
1.711
1.681
1.662
1.681
1.691
1.681
1.662
1.672
1.691
1.672
1.642
1.642
1.662
1.657
1.637
1.637
1.662
1.662
1.637
1.632
1.652
1.657
1.642
1.628
1.647
1.657
1.632
1.623
1.642
1.657
1.647
1.632
1.642
1.667
1.647
1.628
1.637
1.657
1.652
1.632
1.628
1.652
1.652
1.623
1.623
1.647
1.657
1.642
1.632
1.652
1.672
1.642
1.628
1.647
1.667
1.657
1.647
1.657
1.681
1.662
1.637
1.647
1.667
1.667
1.647
1.652
1.681
1.681
1.652
1.652
1.676
1.686
1.667
1.662
1.681
1.696
1.672
1.662
1.681
1.696
1.686
1.667
1.676
1.701
1.681
1.657
1.667
1.686
1.686
1.672
1.676
1.701
1.701
1.672
1.667
1.686
1.696
1.686
1.681
1.701
1.716
1.691
1.676
1.691
1.701
1.686
1.667
1.672
1.691
1.667
1.642
1.647
1.662
1.657
1.632
1.628
1.657
1.657
1.628
1.628
1.647
1.652
1.632
1.623
1.642
1.652
1.623
1.613
1.632
1.647
1.637
1.623
1.637
1.657
1.642
1.623
1.632
1.657
1.652
1.632
1.637
1.662
1.662
1.637
1.637
1.662
1.672
1.657
1.662
1.691
1.72
1.711
1.716
1.755
1.784
1.789
1.789
1.808
1.838
1.813
1.774
1.76
1.755
1.716
1.667
1.632
1.618
1.579
1.515
1.491
1.496
1.486
1.471
1.471
1.51
1.549
1.549
1.564
1.603
1.637
1.647
1.642
1.657
1.681
1.667
1.647
1.667
1.686
1.686
1.667
1.672
1.696
1.696
1.667
1.672
1.691
1.696
1.676
1.672
1.696
1.706
1.681
1.667
1.691
1.706
1.696
1.681
1.691
1.711
1.691
1.672
1.686
1.716
1.716
1.701
1.701
1.73
1.73
1.701
1.696
1.72
1.72
1.706
1.701
1.725
1.74
1.711
1.701
1.72
1.735
1.72
1.701
1.716
1.74
1.725
1.706
1.716
1.74
1.735
1.72
1.72
1.745
1.745
1.716
1.72
1.75
1.76
1.745
1.735
1.76
1.769
1.745
1.735
1.755
1.769
1.76
1.745
1.764
1.789
1.779
1.764
1.784
1.804
1.804
1.784
1.784
1.804
1.799
1.769
1.774
1.799
1.808
1.794
1.789
1.813
1.828
1.799
1.789
1.804
1.808
1.789
1.764
1.769
1.784
1.755
1.73
1.74
1.755
1.745
1.725
1.725
1.75
1.74
1.706
1.701
1.716
1.711
1.686
1.672
1.691
1.701
1.672
1.652
1.662
1.667
1.652
1.632
1.642
1.657
1.637
1.613
1.628
1.647
1.647
1.628
1.632
1.652
1.647
1.618
1.618
1.642
1.642
1.623
1.613
1.637
1.647
1.623
1.613
1.632
1.647
1.637
1.623
1.632
1.657
1.637
1.618
1.632
1.652
1.647
1.628
1.628
1.652
1.647
1.618
1.623
1.642
1.647
1.637
1.632
1.662
1.672
1.642
1.632
1.652
1.667
1.652
1.637
1.652
1.672
1.652
1.632
1.647
1.667
1.667
1.652
1.657
1.681
1.672
1.637
1.637
1.657
1.657
1.637
1.628
1.652
1.662
1.637
1.632
1.657
1.667
1.652
1.637
1.652
1.672
1.652
1.632
1.647
1.667
1.657
1.642
1.647
1.667
1.662
1.632
1.637
1.662
1.662
1.647
1.642
1.662
1.672
1.642
1.628
1.642
1.652
1.642
1.628
1.642
1.662
1.642
1.623
1.637
1.662
1.652
1.632
1.632
1.657
1.647
1.623
1.628
1.652
1.652
1.637
1.632
1.652
1.662
1.632
1.623
1.642
1.662
1.657
1.642
1.657
1.676
1.647
1.623
1.628
1.642
1.632
1.618
1.628
1.657
1.657
1.637
1.652
1.672
1.676
1.652
1.647
1.667
1.676
1.652
1.642
1.672
1.686
1.676
1.667
1.681
1.701
1.676
1.652
1.667
1.681
1.672
1.652
1.652
1.681
1.676
1.652
1.662
1.681
1.681
1.662
1.652
1.672
1.676
1.642
1.632
1.647
1.657
1.642
1.623
1.632
1.652
1.628
1.613
1.628
1.647
1.642
1.628
1.632
1.657
1.647
1.618
1.618
1.637
1.637
1.618
1.618
1.642
1.652
1.623
1.613
1.632
1.637
1.623
1.608
1.623
1.642
1.623
1.608
1.623
1.642
1.642
1.628
1.637
1.667
1.662
1.647
1.662
1.701
1.72
1.72
1.73
1.774
1.794
1.774
1.779
1.804
1.813
1.794
1.764
1.76
1.75
1.696
1.642
1.613
1.579
1.53
1.476
1.457
1.471
1.466
1.452
1.476
1.52
1.544
1.549
1.559
1.603
1.618
1.603
1.603
1.637
1.657
1.652
1.637
1.652
1.672
1.642
1.618
1.632
1.647
1.637
1.628
1.637
1.672
1.667
1.642
1.652
1.686
1.686
1.672
1.662
1.676
1.676
1.642
1.628
1.647
1.657
1.642
1.632
1.652
1.676
1.652
1.637
1.652
1.672
1.662
1.647
1.662
1.696
1.691
1.662
1.667
1.691
1.691
1.672
1.672
1.691
1.696
1.667
1.662
1.691
1.701
1.691
1.681
1.696
1.716
1.691
1.672
1.681
1.696
1.691
1.676
1.681
1.716
1.706
1.676
1.681
1.706
1.706
1.696
1.701
1.73
1.75
1.73
1.73
1.76
1.769
1.755
1.74
1.755
1.769
1.745
1.73
1.745
1.764
1.755
1.735
1.74
1.764
1.755
1.73
1.74
1.76
1.76
1.745
1.74
1.76
1.764
1.735
1.725
1.745
1.755
1.74
1.73
1.745
1.76
1.725
1.706
1.711
1.72
1.701
1.676
1.681
1.701
1.686
1.662
1.662
1.681
1.672
1.647
1.637
1.652
1.652
1.618
1.603
1.623
1.628
1.608
1.593
1.613
1.632
1.608
1.593
1.608
1.628
1.618
1.598
1.598
1.618
1.603
1.574
1.584
1.608
1.613
1.598
1.593
1.618
1.623
1.588
1.579
1.598
1.608
1.593
1.584
1.603
1.623
1.598
1.579
1.598
1.618
1.613
1.593
1.603
1.628
1.618
1.588
1.593
1.613
1.613
1.593
1.593
1.618
1.623
1.598
1.593
1.613
1.623
1.613
1.603
1.628
1.647
1.623
1.608
1.623
1.637
1.628
1.613
1.618
1.642
1.637
1.608
1.618
1.642
1.637
1.618
1.608
1.628
1.628
1.593
1.588
1.613
1.623
1.608
1.598
1.613
1.632
1.608
1.593
1.608
1.623
1.613
1.593
1.603
1.628
1.618
1.593
1.598
1.623
1.623
1.603
1.603
1.623
1.628
1.598
1.588
1.613
1.618
1.603
1.593
1.618
1.637
1.618
1.598
1.618
1.632
1.628
1.603
1.613
1.637
1.628
1.603
1.613
1.637
1.632
1.613
1.608
1.628
1.628
1.593
1.588
1.613
1.628
1.613
1.603
1.623
1.642
1.618
1.603
1.618
1.632
1.628
1.608
1.618
1.647
1.632
1.608
1.613
1.632
1.632
1.613
1.613
1.642
1.647
1.618
1.618
1.637
1.642
1.628
1.618
1.632
1.647
1.618
1.593
1.613
1.632
1.628
1.618
1.628
1.652
1.637
1.608
1.618
1.637
1.632
1.613
1.613
1.637
1.642
1.618
1.618
1.647
1.657
1.642
1.632
1.652
1.667
1.642
1.628
1.647
1.657
1.647
1.628
1.642
1.667
1.657
1.632
1.642
1.667
1.667
1.652
1.652
1.676
1.681
1.652
1.652
1.676
1.681
1.662
1.647
1.667
1.681
1.652
1.632
1.652
1.667
1.662
1.647
1.652
1.676
1.662
1.632
1.637
1.657
1.647
1.628
1.618
1.637
1.637
1.613
1.613
1.637
1.647
1.632
1.623
1.642
1.657
1.632
1.613
1.632
1.647
1.632
1.618
1.628
1.647
1.637
1.613
1.623
1.642
1.632
1.618
1.618
1.647
1.652
1.623
1.623
1.652
1.662
1.652
1.642
1.662
1.681
1.662
1.662
1.696
1.73
1.74
1.745
1.779
1.818
1.818
1.804
1.818
1.838
1.818
1.779
1.75
1.74
1.701
1.623
1.564
1.535
1.5
1.461
1.437
1.457
1.481
1.471
1.486
1.535
1.584
1.598
1.603
1.632
1.667
1.657
1.637
1.647
1.672
1.672
1.652
1.652
1.681
1.686
1.657
1.662
1.686
1.696
1.686
1.672
1.691
1.701
1.667
1.657
1.676
1.691
1.686
1.672
1.686
1.711
1.696
1.672
1.681
1.701
1.696
1.676
1.676
1.711
1.716
1.691
1.696
1.72
1.72
1.706
1.696
1.711
1.725
1.696
1.676
1.696
1.716
1.711
1.696
1.706
1.73
1.716
1.696
1.706
1.73
1.73
1.716
1.72
1.745
1.74
1.711
1.706
1.73
1.735
1.72
1.72
1.745
1.764
1.745
1.74
1.76
1.774
1.76
1.74
1.755
1.774
1.764
1.745
1.76
1.784
1.789
1.779
1.784
1.808
1.808
1.774
1.774
1.799
1.808
1.799
1.794
1.818
1.828
1.804
1.794
1.813
1.828
1.818
1.804
1.813
1.833
1.813
1.789
1.794
1.813
1.804
1.779
1.774
1.799
1.789
1.76
1.755
1.774
1.769
1.745
1.735
1.75
1.755
1.72
1.701
1.716
1.725
1.706
1.686
1.701
1.72
1.706
1.686
1.696
1.706
1.696
1.672
1.667
1.681
1.676
1.642
1.642
1.662
1.667
1.657
1.652
1.672
1.686
1.657
1.647
1.662
1.672
1.657
1.642
1.652
1.676
1.662
1.637
1.647
1.667
1.667
1.647
1.647
1.672
1.667
1.637
1.637
1.662
1.672
1.662
1.652
1.676
1.691
1.667
1.652
1.676
1.691
1.676
1.657
1.667
1.691
1.672
1.652
1.672
1.696
1.691
1.672
1.672
1.691
1.686
1.657
1.657
1.681
1.686
1.672
1.667
1.696
1.711
1.681
1.662
1.686
1.696
1.686
1.676
1.691
1.716
1.701
1.681
1.696
1.72
1.716
1.696
1.696
1.72
1.716
1.686
1.686
1.706
1.706
1.686
1.681
1.706
1.72
1.696
1.691
1.716
1.725
1.716
1.696
1.706
1.725
1.701
1.676
1.686
1.706
1.706
1.691
1.701
1.73
1.73
1.701
1.706
1.73
1.73
1.711
1.701
1.72
1.725
1.701
1.691
1.711
1.73
1.72
1.711
1.725
1.75
1.73
1.711
1.72
1.735
1.725
1.706
1.711
1.735
1.735
1.711
1.716
1.735
1.74
1.72
1.716
1.735
1.75
1.72
1.711
1.73
1.745
1.735
1.72
1.735
1.755
1.73
1.706
1.72
1.74
1.735
1.72
1.72
1.745
1.74
1.711
1.716
1.74
1.745
1.73
1.725
1.75
1.755
1.725
1.716
1.73
1.735
1.72
1.706
1.725
1.755
1.74
1.725
1.74
1.76
1.75
1.73
1.73
1.755
1.745
1.725
1.73
1.76
1.764
1.75
1.75
1.769
1.774
1.745
1.73
1.755
1.764
1.75
1.74
1.755
1.774
1.755
1.735
1.75
1.769
1.764
1.74
1.74
1.76
1.75
1.72
1.725
1.75
1.75
1.725
1.716
1.735
1.74
1.711
1.701
1.725
1.74
1.73
1.716
1.735
1.755
1.73
1.701
1.706
1.716
1.701
1.681
1.691
1.716
1.711
1.686
1.686
1.706
1.711
1.691
1.686
1.711
1.72
1.696
1.691
1.711
1.725
1.716
1.696
1.711
1.735
1.72
1.711
1.735
1.76
1.76
1.755
1.769
1.808
1.818
1.804
1.823
1.862
1.877
1.867
1.867
1.882
1.877
1.823
1.789
1.774
1.745
1.696
1.647
1.623
1.603
1.549
1.51
1.51
1.53
1.53
1.525
1.554
1.608
1.632
1.632
1.662
1.701
1.716
1.706
1.706
1.73
1.735
1.711
1.701
1.725
1.735
1.72
1.706
1.72
1.745
1.725
1.711
1.73
1.75
1.745
1.73
1.74
1.769
1.755
1.725
1.725
1.755
1.755
1.74
1.74
1.764
1.769
1.745
1.74
1.76
1.769
1.755
1.745
1.76
1.779
1.755
1.735
1.75
1.764
1.755
1.735
1.74
1.769
1.764
1.745
1.76
1.784
1.789
1.769
1.764
1.789
1.789
1.76
1.75
1.774
1.789
1.779
1.769
1.789
1.808
1.789
1.769
1.779
1.794
1.784
1.764
1.774
1.799
1.794
1.774
1.789
1.823
1.828
1.808
1.804
1.828
1.833
1.799
1.794
1.818
1.833
1.828
1.823
1.848
1.872
1.852
1.838
1.852
1.872
1.857
1.838
1.843
1.862
1.852
1.828
1.833
1.857
1.857
1.838
1.833
1.857
1.862
1.828
1.823
1.838
1.843
1.823
1.804
1.813
1.818
1.789
1.76
1.769
1.779
1.769
1.75
1.755
1.774
1.764
1.73
1.73
1.75
1.745
1.72
1.716
1.735
1.735
1.706
1.696
1.716
1.716
1.696
1.676
1.691
1.711
1.686
1.667
1.686
1.706
1.701
1.686
1.696
1.72
1.701
1.667
1.672
1.691
1.691
1.676
1.672
1.701
1.706
1.681
1.681
1.706
1.716
1.701
1.691
1.706
1.72
1.691
1.672
1.691
1.706
1.696
1.676
1.686
1.716
1.706
1.681
1.691
1.72
1.725
1.706
1.701
1.72
1.72
1.691
1.686
1.706
1.716
1.701
1.686
1.701
1.725
1.706
1.691
1.711
1.73
1.725
1.706
1.711
1.735
1.72
1.691
1.691
1.706
1.701
1.691
1.696
1.725
1.73
1.706
1.701
1.72
1.73
1.711
1.691
1.706
1.716
1.691
1.676
1.701
1.725
1.725
1.711
1.72
1.745
1.73
1.706
1.706
1.72
1.716
1.696
1.691
1.716
1.725
1.696
1.696
1.725
1.735
1.72
1.706
1.72
1.735
1.706
1.686
1.701
1.72
1.711
1.701
1.716
1.745
1.74
1.711
1.711
1.72
1.716
1.691
1.691
1.716
1.725
1.701
1.706
1.735
1.745
1.735
1.72
1.735
1.75
1.72
1.706
1.72
1.735
1.725
1.706
1.711
1.73
1.72
1.696
1.706
1.73
1.74
1.73
1.73
1.75
1.745
1.711
1.696
1.716
1.72
1.706
1.701
1.72
1.745
1.72
1.711
1.725
1.735
1.72
1.696
1.701
1.725
1.716
1.691
1.706
1.735
1.735
1.72
1.72
1.745
1.745
1.711
1.706
1.725
1.73
1.716
1.711
1.73
1.75
1.725
1.711
1.725
1.74
1.735
1.72
1.73
1.76
1.755
1.73
1.74
1.764
1.764
1.745
1.735
1.76
1.76
1.735
1.73
1.755
1.76
1.74
1.725
1.735
1.745
1.716
1.701
1.711
1.72
1.706
1.681
1.686
1.711
1.696
1.676
1.686
1.711
1.711
1.696
1.691
1.716
1.716
1.681
1.676
1.701
1.711
1.696
1.686
1.706
1.716
1.681
1.657
1.672
1.686
1.681
1.667
1.681
1.711
1.701
1.681
1.696
1.716
1.716
1.701
1.701
1.73
1.735
1.711
1.72
1.755
1.784
1.789
1.799
1.838
1.867
1.852
1.843
1.852
1.852
1.818
1.774
1.755
1.745
1.696
1.642
1.613
1.593
1.559
1.505
1.481
1.491
1.491
1.476
1.496
1.549
1.593
1.608
1.632
1.676
1.706
1.691
1.681
1.706
1.72
1.716
1.696
1.706
1.725
1.706
1.681
1.691
1.706
1.701
1.681
1.691
1.72
1.73
1.706
1.711
1.735
1.745
1.725
1.716
1.73
1.745
1.716
1.706
1.73
1.755
1.745
1.73
1.74
1.76
1.735
1.706
1.711
1.73
1.725
1.711
1.711
1.74
1.745
1.716
1.716
1.74
1.74
1.73
1.72
1.745
1.764
1.74
1.73
1.755
1.769
1.76
1.735
1.745
1.764
1.74
1.72
1.73
1.755
1.76
1.745
1.75
1.779
1.779
1.75
1.745
1.764
1.774
1.76
1.755
1.779
1.799
1.774
1.769
1.794
1.813
1.804
1.789
1.804
1.828
1.818
1.794
1.808
1.828
1.823
1.804
1.808
1.833
1.833
1.808
1.808
1.833
1.838
1.823
1.818
1.838
1.852
1.823
1.804
1.818
1.823
1.804
1.784
1.794
1.813
1.794
1.774
1.779
1.794
1.784
1.755
1.745
1.755
1.745
1.706
1.706
1.725
1.73
1.716
1.706
1.725
1.725
1.691
1.667
1.676
1.681
1.662
1.647
1.662
1.686
1.676
1.652
1.662
1.676
1.667
1.647
1.642
1.667
1.662
1.632
1.632
1.657
1.662
1.642
1.628
1.647
1.657
1.632
1.623
1.647
1.662
1.652
1.637
1.647
1.667
1.642
1.618
1.632
1.652
1.657
1.642
1.647
1.676
1.672
1.642
1.642
1.657
1.657
1.637
1.632
1.652
1.672
1.647
1.637
1.657
1.672
1.662
1.642
1.652
1.672
1.652
1.628
1.637
1.657
1.652
1.642
1.652
1.681
1.681
1.657
1.657
1.681
1.681
1.662
1.647
1.662
1.672
1.642
1.628
1.647
1.667
1.657
1.642
1.662
1.686
1.672
1.652
1.662
1.676
1.672
1.647
1.642
1.667
1.662
1.632
1.637
1.662
1.672
1.652
1.642
1.662
1.672
1.642
1.637
1.662
1.676
1.662
1.647
1.662
1.681
1.657
1.632
1.642
1.652
1.647
1.628
1.637
1.667
1.662
1.632
1.632
1.657
1.662
1.652
1.652
1.676
1.691
1.662
1.652
1.676
1.686
1.672
1.652
1.662
1.676
1.652
1.628
1.642
1.657
1.652
1.632
1.637
1.667
1.667
1.642
1.642
1.667
1.667
1.647
1.642
1.662
1.672
1.647
1.637
1.662
1.676
1.667
1.657
1.672
1.691
1.662
1.637
1.642
1.657
1.647
1.623
1.623
1.652
1.652
1.632
1.647
1.676
1.681
1.667
1.662
1.686
1.691
1.657
1.642
1.657
1.662
1.647
1.632
1.652
1.672
1.652
1.637
1.652
1.676
1.672
1.652
1.662
1.686
1.681
1.652
1.652
1.676
1.676
1.657
1.647
1.667
1.676
1.647
1.637
1.667
1.681
1.672
1.662
1.681
1.706
1.681
1.662
1.672
1.686
1.676
1.662
1.667
1.701
1.696
1.672
1.676
1.706
1.706
1.681
1.672
1.691
1.701
1.672
1.662
1.686
1.701
1.686
1.672
1.686
1.706
1.686
1.662
1.667
1.681
1.667
1.647
1.647
1.667
1.662
1.632
1.632
1.657
1.657
1.642
1.637
1.657
1.662
1.632
1.618
1.637
1.642
1.628
1.613
1.628
1.652
1.632
1.613
1.632
1.652
1.647
1.632
1.632
1.657
1.652
1.618
1.623
1.642
1.642
1.628
1.628
1.657
1.676
1.662
1.662
1.696
1.72
1.72
1.72
1.755
1.789
1.779
1.769
1.794
1.813
1.799
1.755
1.725
1.711
1.662
1.584
1.549
1.53
1.491
1.437
1.408
1.417
1.422
1.403
1.408
1.452
1.496
1.515
1.535
1.584
1.632
1.628
1.618
1.637
1.652
1.647
1.623
1.628
1.657
1.647
1.623
1.632
1.662
1.667
1.657
1.652
1.676
1.686
1.657
1.652
1.672
1.681
1.667
1.652
1.667
1.691
1.672
1.652
1.672
1.691
1.686
1.676
1.686
1.716
1.706
1.681
1.681
1.701
1.701
1.681
1.676
1.701
1.706
1.676
1.667
1.696
1.706
1.696
1.686
1.706
1.725
1.706
1.681
1.696
1.716
1.706
1.691
1.701
1.725
1.716
1.686
1.696
1.72
1.725
1.711
1.706
1.73
1.745
1.72
1.716
1.74
1.75
1.73
1.72
1.73
1.75
1.725
1.711
1.73
1.755
1.755
1.745
1.755
1.784
1.779
1.755
1.76
1.779
1.779
1.764
1.76
1.784
1.794
1.769
1.769
1.794
1.808
1.794
1.784
1.794
1.813
1.789
1.769
1.779
1.794
1.784
1.769
1.769
1.794
1.779
1.755
1.755
1.774
1.774
1.755
1.745
1.764
1.764
1.725
1.706
1.716
1.716
1.691
1.667
1.676
1.686
1.662
1.642
1.652
1.667
1.657
1.637
1.637
1.657
1.647
1.618
1.623
1.642
1.642
1.623
1.613
1.637
1.647
1.618
1.613
1.632
1.637
1.623
1.608
1.623
1.642
1.618
1.603
1.623
1.637
1.628
1.613
1.623
1.652
1.642
1.618
1.623
1.642
1.647
1.632
1.628
1.647
1.647
1.608
1.603
1.618
1.628
1.618
1.608
1.628
1.652
1.632
1.618
1.637
1.652
1.637
1.618
1.623
1.647
1.637
1.608
1.623
1.647
1.652
1.642
1.642
1.667
1.672
1.637
1.632
1.647
1.652
1.632
1.618
1.637
1.652
1.632
1.618
1.637
1.652
1.647
1.628
1.637
1.657
1.647
1.618
1.623
1.647
1.647
1.632
1.632
1.657
1.667
1.632
1.628
1.647
1.657
1.642
1.632
1.652
1.672
1.652
1.637
1.657
1.672
1.657
1.632
1.632
1.657
1.642
1.618
1.623
1.647
1.652
1.632
1.632
1.657
1.662
1.632
1.628
1.652
1.662
1.642
1.632
1.647
1.662
1.632
1.618
1.637
1.652
1.647
1.632
1.642
1.667
1.652
1.623
1.628
1.647
1.642
1.628
1.628
1.652
1.662
1.632
1.623
1.642
1.652
1.637
1.623
1.642
1.667
1.642
1.628
1.647
1.662
1.647
1.632
1.642
1.667
1.652
1.628
1.637
1.662
1.662
1.642
1.632
1.657
1.657
1.628
1.628
1.652
1.662
1.652
1.637
1.657
1.662
1.628
1.603
1.618
1.637
1.632
1.618
1.632
1.667
1.657
1.637
1.647
1.667
1.662
1.642
1.642
1.667
1.667
1.637
1.628
1.647
1.652
1.642
1.637
1.657
1.681
1.662
1.647
1.662
1.672
1.652
1.632
1.637
1.662
1.657
1.637
1.657
1.686
1.686
1.667
1.662
1.686
1.681
1.647
1.642
1.667
1.686
1.681
1.676
1.701
1.716
1.686
1.667
1.681
1.696
1.686
1.672
1.681
1.706
1.691
1.667
1.672
1.691
1.691
1.676
1.676
1.706
1.711
1.681
1.672
1.691
1.691
1.667
1.647
1.657
1.667
1.632
1.618
1.632
1.652
1.647
1.637
1.652
1.676
1.662
1.642
1.652
1.672
1.662
1.637
1.628
1.652
1.652
1.623
1.623
1.647
1.657
1.647
1.637
1.657
1.676
1.652
1.637
1.657
1.676
1.667
1.652
1.667
1.701
1.701
1.691
1.716
1.755
1.774
1.774
1.789
1.818
1.823
1.794
1.789
1.794
1.774
1.73
1.686
1.672
1.652
1.584
1.53
1.505
1.481
1.447
1.417
1.422
1.457
1.461
1.461
1.496
1.549
1.579
1.588
1.608
1.647
1.657
1.632
1.632
1.657
1.667
1.657
1.657
1.681
1.701
1.676
1.662
1.686
1.711
1.701
1.686
1.696
1.72
1.706
1.676
1.691
1.711
1.701
1.681
1.676
1.701
1.706
1.676
1.681
1.706
1.716
1.701
1.691
1.711
1.72
1.696
1.676
1.696
1.716
1.716
1.711
1.73
1.755
1.74
1.716
1.72
1.735
1.72
1.691
1.691
1.72
1.725
1.706
1.711
1.745
1.755
1.74
1.735
1.755
1.764
1.735
1.725
1.75
1.774
1.764
1.75
1.755
1.774
1.75
1.725
1.73
1.75
1.75
1.735
1.745
1.779
1.784
1.764
1.764
1.794
1.799
1.789
1.784
1.804
1.818
1.794
1.784
1.804
1.818
1.804
1.789
1.799
1.823
1.808
1.789
1.804
1.828
1.828
1.818
1.823
1.852
1.843
1.804
1.799
1.813
1.813
1.794
1.774
1.789
1.799
1.764
1.75
1.774
1.784
1.774
1.755
1.764
1.779
1.75
1.716
1.716
1.725
1.716
1.696
1.696
1.716
1.716
1.681
1.676
1.696
1.691
1.667
1.647
1.662
1.672
1.642
1.632
1.652
1.672
1.657
1.647
1.662
1.686
1.667
1.637
1.642
1.657
1.647
1.628
1.628
1.657
1.662
1.642
1.647
1.667
1.667
1.642
1.628
1.642
1.652
1.623
1.618
1.642
1.662
1.652
1.642
1.652
1.672
1.652
1.628
1.642
1.667
1.667
1.652
1.657
1.686
1.686
1.657
1.652
1.667
1.667
1.647
1.642
1.662
1.676
1.652
1.642
1.667
1.686
1.681
1.667
1.676
1.696
1.676
1.652
1.662
1.686
1.681
1.662
1.667
1.696
1.696
1.667
1.672
1.696
1.701
1.681
1.662
1.681
1.691
1.657
1.642
1.667
1.676
1.672
1.652
1.672
1.696
1.676
1.652
1.657
1.676
1.672
1.652
1.652
1.681
1.681
1.652
1.657
1.686
1.691
1.672
1.667
1.686
1.701
1.672
1.657
1.676
1.686
1.672
1.652
1.662
1.686
1.667
1.652
1.667
1.691
1.686
1.667
1.672
1.696
1.691
1.657
1.657
1.681
1.686
1.676
1.667
1.686
1.696
1.667
1.652
1.672
1.681
1.667
1.652
1.662
1.681
1.662
1.642
1.657
1.676
1.672
1.657
1.662
1.691
1.691
1.662
1.657
1.676
1.676
1.662
1.657
1.681
1.696
1.667
1.657
1.676
1.691
1.676
1.652
1.662
1.686
1.667
1.652
1.672
1.691
1.681
1.662
1.662
1.681
1.672
1.637
1.632
1.657
1.662
1.652
1.652
1.681
1.696
1.672
1.662
1.686
1.696
1.676
1.662
1.676
1.701
1.681
1.657
1.672
1.691
1.686
1.667
1.672
1.696
1.686
1.657
1.662
1.686
1.691
1.681
1.676
1.701
1.716
1.686
1.676
1.701
1.716
1.706
1.691
1.706
1.725
1.706
1.686
1.701
1.72
1.72
1.701
1.706
1.725
1.72
1.691
1.696
1.716
1.716
1.696
1.681
1.701
1.706
1.672
1.657
1.667
1.676
1.662
1.642
1.652
1.676
1.662
1.642
1.662
1.686
1.681
1.662
1.667
1.691
1.681
1.647
1.647
1.667
1.667
1.647
1.642
1.667
1.676
1.652
1.642
1.667
1.681
1.672
1.657
1.676
1.701
1.676
1.662
1.686
1.72
1.725
1.725
1.745
1.794
1.804
1.789
1.804
1.828
1.833
1.808
1.789
1.799
1.789
1.735
1.701
1.686
1.652
1.593
1.53
1.5
1.486
1.442
1.417
1.442
1.486
1.51
1.53
1.564
1.618
1.632
1.623
1.637
1.672
1.686
1.676
1.676
1.706
1.72
1.696
1.686
1.706
1.716
1.701
1.691
1.711
1.735
1.716
1.701
1.716
1.735
1.725
1.711
1.716
1.745
1.74
1.716
1.72
1.75
1.755
1.74
1.74
1.764
1.769
1.735
1.72
1.735
1.74
1.73
1.711
1.73
1.76
1.745
1.73
1.755
1.774
1.774
1.755
1.755
1.779
1.769
1.74
1.745
1.769
1.774
1.76
1.764
1.789
1.799
1.769
1.755
1.774
1.789
1.769
1.76
1.774
1.794
1.779
1.769
1.794
1.818
1.818
1.799
1.804
1.828
1.813
1.789
1.799
1.818
1.823
1.808
1.799
1.828
1.843
1.818
1.818
1.838
1.852
1.843
1.833
1.852
1.877
1.857
1.838
1.857
1.877
1.877
1.867
1.872
1.896
1.882
1.848
1.852
1.872
1.872
1.852
1.848
1.867
1.872
1.843
1.838
1.852
1.862
1.843
1.818
1.823
1.833
1.799
1.769
1.779
1.789
1.774
1.75
1.755
1.774
1.755
1.72
1.72
1.735
1.725
1.701
1.691
1.711
1.716
1.691
1.681
1.701
1.711
1.696
1.676
1.686
1.701
1.672
1.647
1.662
1.676
1.667
1.652
1.662
1.686
1.676
1.652
1.657
1.681
1.686
1.667
1.662
1.686
1.696
1.672
1.662
1.681
1.686
1.667
1.652
1.667
1.686
1.662
1.647
1.662
1.681
1.676
1.662
1.672
1.696
1.686
1.657
1.662
1.686
1.686
1.667
1.662
1.686
1.691
1.662
1.657
1.686
1.701
1.696
1.686
1.711
1.73
1.711
1.691
1.706
1.72
1.701
1.676
1.676
1.706
1.696
1.672
1.676
1.701
1.701
1.681
1.681
1.701
1.706
1.676
1.667
1.691
1.706
1.696
1.686
1.706
1.72
1.686
1.662
1.672
1.686
1.676
1.662
1.667
1.696
1.691
1.667
1.676
1.701
1.696
1.676
1.676
1.701
1.706
1.676
1.676
1.701
1.716
1.696
1.676
1.681
1.696
1.667
1.652
1.667
1.686
1.681
1.667
1.676
1.706
1.696
1.667
1.667
1.686
1.681
1.657
1.647
1.672
1.676
1.647
1.647
1.676
1.691
1.681
1.676
1.696
1.716
1.691
1.676
1.696
1.711
1.701
1.681
1.686
1.711
1.701
1.672
1.681
1.701
1.701
1.686
1.691
1.72
1.725
1.696
1.691
1.711
1.716
1.701
1.686
1.701
1.72
1.696
1.676
1.701
1.72
1.716
1.696
1.706
1.725
1.706
1.672
1.672
1.681
1.667
1.642
1.637
1.662
1.667
1.632
1.628
1.652
1.662
1.647
1.637
1.657
1.676
1.657
1.642
1.662
1.676
1.667
1.647
1.652
1.672
1.652
1.623
1.632
1.652
1.657
1.642
1.647
1.672
1.676
1.642
1.642
1.667
1.681
1.672
1.667
1.691
1.72
1.701
1.696
1.725
1.75
1.75
1.74
1.76
1.789
1.784
1.76
1.764
1.774
1.755
1.711
1.681
1.667
1.628
1.554
1.5
1.481
1.457
1.422
1.408
1.427
1.457
1.452
1.466
1.515
1.559
1.579
1.584
1.608
1.647
1.647
1.628
1.642
1.667
1.672
1.662
1.662
1.691
1.696
1.676
1.676
1.706
1.716
1.701
1.686
1.706
1.716
1.691
1.676
1.696
1.716
1.711
1.691
1.701
1.72
1.706
1.676
1.681
1.701
1.701
1.681
1.681
1.711
1.716
1.691
1.691
1.716
1.725
1.711
1.701
1.72
1.735
1.706
1.691
1.711
1.72
1.716
1.701
1.711
1.735
1.72
1.701
1.716
1.745
1.75
1.735
1.73
1.755
1.755
1.725
1.72
1.745
1.755
1.74
1.725
1.745
1.764
1.74
1.73
1.75
1.764
1.75
1.735
1.75
1.784
1.774
1.75
1.764
1.789
1.789
1.774
1.779
1.804
1.808
1.784
1.784
1.808
1.818
1.808
1.804
1.823
1.843
1.813
1.794
1.813
1.818
1.808
1.784
1.794
1.818
1.804
1.784
1.799
1.828
1.823
1.799
1.794
1.808
1.804
1.764
1.755
1.764
1.76
1.74
1.725
1.74
1.755
1.725
1.706
1.716
1.72
1.696
1.667
1.667
1.686
1.667
1.637
1.642
1.662
1.652
1.628
1.623
1.642
1.642
1.613
1.613
1.637
1.647
1.632
1.623
1.642
1.657
1.623
1.603
1.623
1.637
1.628
1.618
1.632
1.657
1.637
1.613
1.623
1.642
1.637
1.618
1.618
1.637
1.632
1.603
1.598
1.623
1.628
1.618
1.613
1.637
1.652
1.623
1.613
1.637
1.657
1.647
1.632
1.632
1.657
1.642
1.618
1.632
1.662
1.657
1.642
1.642
1.672
1.672
1.642
1.642
1.662
1.667
1.652
1.647
1.662
1.676
1.647
1.628
1.647
1.657
1.642
1.618
1.628
1.647
1.632
1.613
1.623
1.647
1.647
1.632
1.637
1.662
1.667
1.642
1.637
1.657
1.662
1.642
1.628
1.647
1.657
1.632
1.613
1.632
1.647
1.637
1.628
1.642
1.667
1.652
1.628
1.642
1.667
1.662
1.647
1.647
1.672
1.676
1.647
1.652
1.676
1.676
1.652
1.642
1.657
1.672
1.642
1.628
1.652
1.667
1.662
1.652
1.672
1.706
1.696
1.676
1.691
1.706
1.696
1.672
1.662
1.681
1.676
1.647
1.652
1.681
1.696
1.691
1.686
1.706
1.711
1.672
1.642
1.647
1.652
1.632
1.613
1.628
1.657
1.647
1.628
1.642
1.662
1.657
1.632
1.628
1.642
1.637
1.603
1.603
1.628
1.637
1.632
1.632
1.657
1.672
1.647
1.632
1.652
1.662
1.652
1.637
1.647
1.672
1.652
1.632
1.647
1.676
1.681
1.672
1.676
1.711
1.711
1.686
1.701
1.74
1.76
1.76
1.764
1.799
1.823
1.799
1.789
1.794
1.784
1.735
1.676
1.642
1.623
1.559
1.491
1.457
1.447
1.422
1.403
1.413
1.452
1.476
1.476
1.51
1.569
1.603
1.608
1.618
1.647
1.667
1.642
1.637
1.657
1.676
1.667
1.657
1.676
1.706
1.691
1.672
1.686
1.706
1.701
1.676
1.681
1.706
1.706
1.672
1.672
1.691
1.696
1.681
1.672
1.696
1.711
1.681
1.672
1.696
1.711
1.701
1.686
1.706
1.73
1.711
1.691
1.701
1.72
1.716
1.701
1.706
1.73
1.725
1.696
1.706
1.73
1.74
1.725
1.711
1.73
1.745
1.716
1.706
1.72
1.735
1.725
1.711
1.725
1.745
1.73
1.706
1.716
1.735
1.73
1.716
1.72
1.75
1.755
1.73
1.735
1.764
1.769
1.755
1.745
1.769
1.779
1.75
1.74
1.764
1.779
1.769
1.755
1.769
1.794
1.779
1.76
1.774
1.799
1.789
1.774
1.774
1.799
1.794
1.764
1.764
1.784
1.789
1.774
1.764
1.789
1.799
1.774
1.764
1.779
1.789
1.774
1.755
1.764
1.784
1.755
1.725
1.735
1.745
1.73
1.706
1.701
1.72
1.706
1.676
1.672
1.691
1.686
1.667
1.657
1.676
1.681
1.652
1.637
1.652
1.667
1.652
1.642
1.652
1.672
1.647
1.623
1.632
1.647
1.637
1.613
1.613
1.637
1.632
1.608
1.613
1.637
1.642
1.623
1.618
1.637
1.647
1.618
1.608
1.628
1.642
1.628
1.618
1.632
1.657
1.642
1.623
1.642
1.662
1.657
1.642
1.647
1.676
1.672
1.642
1.642
1.657
1.652
1.628
1.618
1.637
1.647
1.618
1.613
1.637
1.657
1.647
1.637
1.652
1.672
1.657
1.632
1.647
1.662
1.647
1.632
1.637
1.662
1.657
1.628
1.632
1.652
1.662
1.647
1.637
1.657
1.662
1.628
1.618
1.632
1.642
1.632
1.618
1.632
1.657
1.642
1.623
1.632
1.652
1.652
1.632
1.637
1.662
1.652
1.623
1.628
1.652
1.652
1.637
1.628
1.652
1.662
1.632
1.618
1.637
1.647
1.637
1.628
1.642
1.667
1.642
1.623
1.637
1.647
1.637
1.613
1.618
1.647
1.642
1.618
1.628
1.657
1.662
1.647
1.642
1.667
1.676
1.647
1.642
1.662
1.672
1.662
1.652
1.667
1.686
1.667
1.647
1.667
1.696
1.686
1.667
1.662
1.681
1.667
1.632
1.632
1.657
1.662
1.647
1.642
1.667
1.676
1.647
1.632
1.647
1.647
1.628
1.613
1.628
1.647
1.623
1.598
1.613
1.632
1.623
1.608
1.613
1.642
1.632
1.603
1.608
1.632
1.637
1.618
1.613
1.637
1.647
1.618
1.613
1.632
1.642
1.632
1.618
1.637
1.657
1.637
1.628
1.657
1.686
1.691
1.686
1.701
1.75
1.76
1.75
1.764
1.794
1.799
1.784
1.769
1.779
1.755
1.691
1.642
1.623
1.588
1.535
1.476
1.452
1.432
1.388
1.364
1.383
1.417
1.437
1.452
1.491
1.549
1.574
1.574
1.598
1.637
1.642
1.632
1.623
1.647
1.657
1.632
1.628
1.652
1.662
1.647
1.632
1.652
1.676
1.657
1.642
1.662
1.686
1.681
1.662
1.667
1.686
1.676
1.647
1.652
1.676
1.681
1.672
1.676
1.711
1.72
1.696
1.686
1.706
1.711
1.691
1.672
1.681
1.701
1.676
1.657
1.672
1.696
1.701
1.691
1.706
1.735
1.725
1.696
1.701
1.72
1.716
1.691
1.681
1.701
1.711
1.686
1.681
1.711
1.725
1.72
1.706
1.725
1.745
1.725
1.706
1.725
1.74
1.735
1.72
1.73
1.76
1.755
1.735
1.745
1.774
1.779
1.764
1.764
1.789
1.799
1.769
1.764
1.789
1.799
1.789
1.774
1.794
1.813
1.794
1.774
1.789
1.804
1.794
1.774
1.779
1.804
1.799
1.774
1.779
1.799
1.799
1.779
1.774
1.794
1.794
1.764
1.755
1.774
1.779
1.769
1.755
1.764
1.774
1.74
1.711
1.716
1.72
1.706
1.676
1.676
1.696
1.676
1.642
1.642
1.657
1.657
1.642
1.642
1.662
1.667
1.632
1.618
1.628
1.628
1.608
1.588
1.608
1.632
1.618
1.603
1.628
1.652
1.647
1.628
1.632
1.647
1.632
1.608
1.613
1.637
1.637
1.618
1.613
1.642
1.652
1.623
1.618
1.637
1.647
1.632
1.618
1.632
1.652
1.632
1.618
1.632
1.652
1.642
1.628
1.637
1.662
1.647
1.623
1.628
1.647
1.652
1.632
1.628
1.652
1.657
1.632
1.628
1.652
1.662
1.652
1.642
1.662
1.681
1.657
1.642
1.657
1.672
1.662
1.642
1.642
1.662
1.647
1.623
1.632
1.662
1.662
1.647
1.642
1.667
1.672
1.642
1.637
1.657
1.662
1.647
1.632
1.647
1.667
1.637
1.623
1.637
1.652
1.647
1.632
1.637
1.667
1.657
1.628
1.632
1.652
1.652
1.637
1.642
1.667
1.672
1.642
1.632
1.652
1.662
1.647
1.637
1.662
1.686
1.662
1.652
1.672
1.686
1.672
1.652
1.657
1.676
1.667
1.642
1.652
1.676
1.681
1.662
1.662
1.691
1.696
1.667
1.667
1.686
1.696
1.681
1.672
1.686
1.696
1.667
1.652
1.662
1.676
1.667
1.642
1.647
1.662
1.647
1.618
1.623
1.637
1.632
1.618
1.618
1.642
1.642
1.613
1.608
1.623
1.628
1.608
1.593
1.613
1.632
1.613
1.598
1.623
1.647
1.642
1.628
1.637
1.657
1.642
1.613
1.618
1.637
1.637
1.618
1.628
1.657
1.667
1.647
1.652
1.681
1.701
1.706
1.711
1.745
1.779
1.764
1.76
1.779
1.799
1.784
1.75
1.73
1.72
1.662
1.588
1.554
1.53
1.481
1.417
1.378
1.383
1.378
1.359
1.369
1.413
1.457
1.476
1.5
1.554
1.598
1.588
1.588
1.618
1.642
1.637
1.623
1.637
1.667
1.657
1.637
1.647
1.672
1.672
1.652
1.652
1.676
1.681
1.652
1.647
1.672
1.676
1.657
1.647
1.667
1.681
1.657
1.642
1.667
1.686
1.681
1.662
1.667
1.691
1.672
1.647
1.657
1.676
1.681
1.672
1.676
1.711
1.716
1.681
1.676
1.696
1.706
1.686
1.676
1.696
1.716
1.691
1.676
1.691
1.701
1.691
1.672
1.681
1.711
1.701
1.681
1.696
1.725
1.725
1.711
1.711
1.735
1.735
1.711
1.706
1.73
1.735
1.72
1.711
1.735
1.755
1.74
1.73
1.75
1.764
1.76
1.745
1.76
1.784
1.769
1.745
1.76
1.779
1.779
1.76
1.76
1.779
1.779
1.745
1.75
1.779
1.789
1.779
1.769
1.789
1.804
1.774
1.755
1.764
1.769
1.755
1.74
1.755
1.784
1.769
1.74
1.74
1.75
1.74
1.711
1.696
1.711
1.701
1.662
1.652
1.672
1.676
1.657
1.642
1.657
1.662
1.632
1.613
1.623
1.632
1.618
1.598
1.603
1.628
1.613
1.593
1.608
1.628
1.628
1.603
1.598
1.618
1.613
1.574
1.574
1.593
1.603
1.588
1.584
1.603
1.623
1.593
1.579
1.598
1.613
1.598
1.584
1.593
1.618
1.608
1.588
1.603
1.632
1.632
1.618
1.618
1.642
1.642
1.608
1.603
1.618
1.618
1.603
1.593
1.618
1.632
1.613
1.608
1.628
1.642
1.628
1.613
1.623
1.647
1.632
1.603
1.613
1.637
1.642
1.628
1.637
1.662
1.662
1.632
1.628
1.647
1.642
1.623
1.608
1.628
1.642
1.613
1.598
1.623
1.637
1.632
1.618
1.628
1.657
1.642
1.623
1.637
1.657
1.652
1.632
1.628
1.652
1.652
1.623
1.623
1.647
1.647
1.628
1.618
1.632
1.642
1.613
1.603
1.623
1.647
1.642
1.637
1.647
1.672
1.652
1.623
1.632
1.647
1.642
1.623
1.623
1.647
1.647
1.618
1.618
1.642
1.647
1.637
1.632
1.662
1.681
1.657
1.642
1.667
1.681
1.672
1.652
1.662
1.686
1.667
1.652
1.662
1.686
1.681
1.662
1.662
1.691
1.686
1.657
1.657
1.681
1.691
1.676
1.672
1.691
1.701
1.667
1.647
1.667
1.676
1.662
1.647
1.657
1.676
1.657
1.632
1.642
1.657
1.647
1.623
1.623
1.642
1.637
1.608
1.608
1.628
1.637
1.623
1.613
1.637
1.652
1.623
1.608
1.628
1.642
1.632
1.623
1.642
1.667
1.647
1.628
1.637
1.657
1.652
1.642
1.647
1.681
1.686
1.672
1.681
1.72
1.745
1.745
1.755
1.794
1.818
1.799
1.794
1.808
1.813
1.784
1.74
1.72
1.711
1.652
1.584
1.549
1.525
1.476
1.422
1.398
1.408
1.408
1.398
1.417
1.471
1.51
1.53
1.554
1.603
1.632
1.618
1.608
1.637
1.657
1.657
1.647
1.667
1.696
1.686
1.667
1.681
1.706
1.701
1.681
1.676
1.701
1.696
1.672
1.672
1.696
1.706
1.686
1.681
1.701
1.711
1.686
1.676
1.701
1.72
1.716
1.701
1.716
1.74
1.72
1.701
1.711
1.735
1.73
1.716
1.72
1.755
1.75
1.725
1.725
1.75
1.75
1.735
1.725
1.75
1.76
1.73
1.72
1.74
1.76
1.75
1.735
1.75
1.769
1.755
1.73
1.735
1.755
1.755
1.74
1.745
1.779
1.774
1.75
1.76
1.784
1.794
1.779
1.769
1.794
1.808
1.779
1.774
1.794
1.808
1.799
1.789
1.804
1.828
1.818
1.799
1.818
1.843
1.838
1.823
1.823
1.848
1.843
1.813
1.818
1.838
1.838
1.813
1.804
1.823
1.833
1.804
1.789
1.808
1.823
1.818
1.808
1.828
1.857
1.833
1.804
1.808
1.813
1.799
1.764
1.755
1.764
1.75
1.716
1.711
1.73
1.73
1.706
1.691
1.711
1.72
1.691
1.676
1.701
1.706
1.686
1.667
1.672
1.686
1.667
1.642
1.652
1.667
1.662
1.647
1.652
1.676
1.672
1.642
1.642
1.662
1.667
1.652
1.642
1.667
1.676
1.652
1.642
1.662
1.672
1.662
1.647
1.662
1.681
1.662
1.637
1.652
1.676
1.676
1.662
1.672
1.696
1.686
1.652
1.652
1.676
1.681
1.662
1.657
1.681
1.696
1.672
1.667
1.686
1.701
1.686
1.667
1.681
1.701
1.676
1.652
1.662
1.676
1.672
1.652
1.662
1.691
1.691
1.667
1.672
1.696
1.701
1.676
1.662
1.681
1.691
1.662
1.652
1.672
1.681
1.672
1.657
1.672
1.691
1.672
1.652
1.672
1.691
1.691
1.681
1.691
1.716
1.716
1.681
1.681
1.696
1.691
1.672
1.667
1.691
1.706
1.686
1.681
1.711
1.73
1.72
1.706
1.716
1.73
1.706
1.681
1.691
1.711
1.706
1.691
1.701
1.73
1.73
1.706
1.711
1.73
1.725
1.706
1.696
1.706
1.706
1.672
1.657
1.672
1.681
1.667
1.652
1.662
1.686
1.667
1.642
1.657
1.676
1.667
1.647
1.652
1.672
1.667
1.642
1.642
1.672
1.676
1.662
1.657
1.681
1.691
1.662
1.652
1.672
1.681
1.662
1.647
1.667
1.686
1.672
1.652
1.676
1.701
1.711
1.701
1.716
1.755
1.764
1.75
1.769
1.799
1.808
1.794
1.794
1.813
1.813
1.774
1.745
1.745
1.73
1.681
1.628
1.598
1.569
1.5
1.442
1.427
1.437
1.437
1.437
1.466
1.52
1.549
1.559
1.593
1.642
1.662
1.662
1.667
1.701
1.716
1.686
1.676
1.701
1.711
1.701
1.691
1.711
1.735
1.716
1.696
1.711
1.725
1.716
1.696
1.696
1.72
1.716
1.696
1.706
1.735
1.74
1.73
1.725
1.75
1.755
1.73
1.72
1.74
1.75
1.735
1.725
1.745
1.764
1.745
1.725
1.74
1.76
1.755
1.745
1.755
1.779
1.774
1.745
1.75
1.774
1.779
1.76
1.755
1.779
1.789
1.764
1.755
1.774
1.784
1.774
1.764
1.779
1.799
1.774
1.76
1.774
1.799
1.799
1.784
1.789
1.818
1.813
1.789
1.799
1.818
1.823
1.813
1.813
1.838
1.852
1.833
1.828
1.852
1.867
1.857
1.843
1.857
1.882
1.857
1.838
1.857
1.877
1.872
1.852
1.857
1.882
1.872
1.848
1.852
1.872
1.872
1.857
1.852
1.867
1.872
1.838
1.823
1.838
1.838
1.818
1.799
1.808
1.818
1.789
1.76
1.769
1.784
1.769
1.745
1.74
1.76
1.745
1.716
1.716
1.725
1.72
1.696
1.681
1.696
1.701
1.667
1.652
1.672
1.681
1.672
1.657
1.672
1.696
1.676
1.657
1.672
1.686
1.676
1.652
1.657
1.676
1.662
1.632
1.637
1.667
1.676
1.667
1.662
1.691
1.696
1.667
1.657
1.676
1.691
1.676
1.667
1.686
1.711
1.691
1.672
1.681
1.696
1.681
1.662
1.662
1.691
1.681
1.657
1.662
1.691
1.696
1.681
1.676
1.696
1.701
1.672
1.657
1.681
1.696
1.686
1.676
1.696
1.716
1.696
1.676
1.691
1.706
1.696
1.676
1.681
1.701
1.691
1.667
1.667
1.691
1.691
1.672
1.662
1.686
1.696
1.667
1.662
1.686
1.696
1.686
1.676
1.701
1.72
1.701
1.686
1.701
1.72
1.716
1.701
1.706
1.725
1.711
1.686
1.691
1.716
1.72
1.706
1.701
1.725
1.74
1.716
1.711
1.73
1.735
1.716
1.701
1.716
1.73
1.706
1.691
1.711
1.72
1.711
1.691
1.691
1.711
1.696
1.657
1.662
1.676
1.676
1.662
1.662
1.681
1.686
1.652
1.642
1.662
1.676
1.667
1.652
1.672
1.696
1.672
1.652
1.667
1.681
1.676
1.657
1.662
1.691
1.681
1.652
1.657
1.681
1.676
1.657
1.647
1.676
1.681
1.662
1.672
1.706
1.725
1.72
1.72
1.755
1.789
1.779
1.774
1.794
1.818
1.813
1.799
1.799
1.813
1.784
1.735
1.716
1.711
1.676
1.623
1.574
1.549
1.51
1.452
1.427
1.447
1.461
1.471
1.491
1.544
1.598
1.603
1.608
1.642
1.667
1.667
1.657
1.667
1.696
1.691
1.672
1.681
1.701
1.706
1.686
1.681
1.711
1.72
1.691
1.691
1.716
1.725
1.711
1.696
1.711
1.73
1.706
1.686
1.706
1.725
1.72
1.711
1.72
1.745
1.735
1.706
1.711
1.73
1.73
1.711
1.711
1.74
1.745
1.711
1.706
1.735
1.75
1.74
1.73
1.75
1.769
1.74
1.725
1.735
1.75
1.74
1.725
1.735
1.76
1.755
1.73
1.74
1.764
1.764
1.75
1.75
1.779
1.784
1.76
1.755
1.779
1.789
1.774
1.76
1.774
1.794
1.779
1.764
1.789
1.813
1.808
1.799
1.808
1.838
1.823
1.799
1.804
1.828
1.828
1.813
1.808
1.838
1.843
1.813
1.808
1.833
1.843
1.828
1.813
1.833
1.852
1.828
1.813
1.828
1.843
1.828
1.804
1.808
1.833
1.813
1.784
1.789
1.808
1.804
1.784
1.774
1.789
1.784
1.745
1.725
1.745
1.74
1.72
1.696
1.711
1.72
1.691
1.672
1.681
1.696
1.681
1.662
1.667
1.691
1.676
1.647
1.652
1.667
1.667
1.647
1.647
1.672
1.676
1.647
1.642
1.667
1.676
1.662
1.652
1.667
1.681
1.657
1.637
1.652
1.667
1.652
1.632
1.642
1.672
1.662
1.637
1.652
1.681
1.681
1.667
1.667
1.691
1.691
1.662
1.657
1.681
1.686
1.672
1.662
1.681
1.701
1.672
1.657
1.672
1.691
1.686
1.672
1.676
1.706
1.691
1.667
1.672
1.691
1.686
1.667
1.657
1.681
1.686
1.657
1.652
1.676
1.691
1.676
1.672
1.691
1.716
1.691
1.676
1.696
1.711
1.701
1.686
1.686
1.706
1.691
1.662
1.667
1.686
1.686
1.667
1.662
1.686
1.691
1.667
1.662
1.686
1.691
1.676
1.672
1.696
1.716
1.691
1.676
1.691
1.711
1.701
1.686
1.701
1.725
1.716
1.691
1.701
1.725
1.72
1.706
1.706
1.73
1.735
1.706
1.706
1.725
1.73
1.711
1.691
1.696
1.701
1.672
1.647
1.662
1.676
1.662
1.642
1.652
1.676
1.662
1.642
1.657
1.681
1.676
1.662
1.657
1.681
1.676
1.642
1.632
1.647
1.657
1.642
1.637
1.657
1.676
1.652
1.642
1.662
1.681
1.672
1.652
1.657
1.681
1.667
1.642
1.652
1.681
1.686
1.681
1.691
1.73
1.75
1.735
1.755
1.784
1.804
1.799
1.794
1.813
1.838
1.808
1.784
1.789
1.779
1.745
1.696
1.667
1.642
1.574
1.496
1.457
1.447
1.427
1.413
1.432
1.486
1.52
1.53
1.564
1.613
1.647
1.652
1.652
1.676
1.691
1.667
1.652
1.676
1.696
1.686
1.667
1.676
1.701
1.691
1.672
1.681
1.706
1.706
1.686
1.686
1.706
1.706
1.676
1.672
1.696
1.706
1.696
1.691
1.72
1.74
1.716
1.701
1.716
1.725
1.711
1.696
1.706
1.73
1.72
1.706
1.725
1.75
1.75
1.73
1.72
1.74
1.74
1.706
1.706
1.735
1.75
1.74
1.735
1.755
1.769
1.735
1.716
1.735
1.75
1.745
1.735
1.755
1.784
1.769
1.745
1.75
1.769
1.76
1.74
1.745
1.774
1.784
1.76
1.76
1.789
1.799
1.784
1.779
1.794
1.808
1.784
1.769
1.789
1.808
1.808
1.799
1.818
1.848
1.833
1.808
1.818
1.838
1.828
1.804
1.799
1.823
1.818
1.794
1.794
1.818
1.823
1.808
1.799
1.818
1.833
1.804
1.784
1.799
1.808
1.794
1.769
1.769
1.784
1.755
1.725
1.735
1.76
1.75
1.73
1.725
1.745
1.735
1.696
1.681
1.691
1.691
1.672
1.657
1.681
1.696
1.667
1.647
1.662
1.672
1.662
1.647
1.652
1.676
1.667
1.647
1.657
1.681
1.676
1.652
1.642
1.662
1.662
1.632
1.637
1.662
1.672
1.657
1.652
1.672
1.681
1.652
1.637
1.652
1.672
1.662
1.652
1.667
1.691
1.676
1.652
1.662
1.686
1.681
1.667
1.667
1.696
1.691
1.662
1.657
1.676
1.681
1.667
1.652
1.676
1.696
1.681
1.672
1.691
1.706
1.691
1.667
1.681
1.701
1.681
1.657
1.667
1.691
1.696
1.681
1.686
1.711
1.711
1.676
1.672
1.696
1.701
1.686
1.672
1.691
1.706
1.681
1.672
1.691
1.706
1.691
1.672
1.681
1.701
1.681
1.657
1.667
1.691
1.696
1.681
1.681
1.706
1.706
1.672
1.672
1.696
1.706
1.691
1.686
1.711
1.725
1.696
1.676
1.691
1.701
1.686
1.672
1.681
1.706
1.696
1.676
1.696
1.725
1.73
1.716
1.716
1.74
1.735
1.706
1.696
1.716
1.716
1.696
1.691
1.716
1.725
1.701
1.696
1.725
1.745
1.74
1.73
1.74
1.764
1.745
1.716
1.72
1.74
1.735
1.716
1.72
1.745
1.745
1.716
1.716
1.735
1.735
1.716
1.696
1.706
1.711
1.681
1.662
1.676
1.691
1.676
1.667
1.686
1.716
1.701
1.676
1.681
1.696
1.686
1.657
1.652
1.672
1.667
1.642
1.647
1.676
1.686
1.676
1.672
1.696
1.716
1.686
1.672
1.691
1.706
1.691
1.676
1.691
1.72
1.716
1.706
1.73
1.769
1.789
1.789
1.808
1.848
1.857
1.833
1.828
1.848
1.838
1.799
1.755
1.74
1.711
1.642
1.588
1.559
1.525
1.476
1.437
1.437
1.457
1.452
1.447
1.481
1.535
1.564
1.584
1.608
1.652
1.662
1.637
1.642
1.672
1.681
1.672
1.672
1.696
1.72
1.701
1.696
1.716
1.73
1.72
1.696
1.701
1.716
1.691
1.662
1.676
1.701
1.701
1.691
1.696
1.725
1.73
1.701
1.701
1.716
1.716
1.701
1.691
1.711
1.72
1.696
1.691
1.716
1.735
1.725
1.716
1.725
1.745
1.725
1.711
1.72
1.745
1.74
1.725
1.725
1.75
1.745
1.716
1.716
1.74
1.745
1.725
1.716
1.74
1.755
1.725
1.716
1.735
1.75
1.74
1.725
1.74
1.769
1.755
1.735
1.75
1.774
1.774
1.764
1.769
1.799
1.799
1.769
1.769
1.794
1.794
1.779
1.779
1.804
1.818
1.794
1.784
1.808
1.823
1.813
1.794
1.804
1.823
1.804
1.779
1.789
1.808
1.808
1.789
1.789
1.808
1.799
1.769
1.764
1.784
1.789
1.769
1.764
1.789
1.799
1.769
1.75
1.76
1.769
1.745
1.72
1.72
1.735
1.716
1.686
1.696
1.711
1.701
1.672
1.667
1.681
1.676
1.642
1.642
1.662
1.667
1.647
1.637
1.657
1.662
1.628
1.613
1.628
1.637
1.628
1.618
1.632
1.662
1.642
1.618
1.632
1.652
1.647
1.628
1.632
1.657
1.647
1.618
1.618
1.637
1.642
1.628
1.618
1.637
1.647
1.623
1.613
1.632
1.647
1.637
1.623
1.642
1.667
1.652
1.637
1.652
1.672
1.667
1.652
1.657
1.686
1.676
1.647
1.647
1.672
1.672
1.652
1.642
1.657
1.667
1.637
1.628
1.647
1.657
1.652
1.637
1.652
1.676
1.662
1.642
1.657
1.676
1.667
1.647
1.642
1.667
1.662
1.632
1.637
1.667
1.676
1.662
1.662
1.681
1.691
1.657
1.637
1.652
1.662
1.652
1.642
1.657
1.681
1.662
1.642
1.657
1.676
1.667
1.652
1.652
1.672
1.667
1.642
1.647
1.672
1.672
1.652
1.642
1.662
1.672
1.642
1.628
1.642
1.657
1.642
1.632
1.647
1.672
1.657
1.637
1.652
1.672
1.667
1.647
1.652
1.681
1.681
1.657
1.662
1.686
1.691
1.667
1.662
1.681
1.696
1.667
1.657
1.676
1.691
1.681
1.667
1.681
1.706
1.681
1.662
1.681
1.706
1.701
1.686
1.686
1.711
1.701
1.672
1.667
1.686
1.696
1.681
1.681
1.706
1.716
1.686
1.676
1.691
1.696
1.672
1.647
1.652
1.662
1.637
1.613
1.628
1.647
1.642
1.623
1.632
1.662
1.657
1.628
1.628
1.652
1.657
1.637
1.632
1.652
1.662
1.637
1.628
1.652
1.662
1.647
1.632
1.642
1.662
1.637
1.613
1.623
1.642
1.647
1.637
1.652
1.691
1.696
1.681
1.696
1.73
1.75
1.755
1.764
1.804
1.823
1.799
1.799
1.813
1.813
1.779
1.73
1.706
1.681
1.618
1.554
1.525
1.5
1.457
1.413
1.403
1.422
1.422
1.408
1.437
1.496
1.54
1.559
1.584
1.637
1.662
1.642
1.642
1.662
1.672
1.657
1.642
1.657
1.681
1.667
1.647
1.662
1.681
1.681
1.667
1.672
1.706
1.706
1.681
1.681
1.701
1.701
1.681
1.672
1.696
1.701
1.672
1.662
1.691
1.711
1.706
1.691
1.711
1.73
1.711
1.691
1.701
1.72
1.711
1.696
1.701
1.725
1.72
1.696
1.701
1.73
1.735
1.72
1.716
1.74
1.75
1.72
1.711
1.73
1.745
1.73
1.72
1.735
1.76
1.74
1.72
1.735
1.76
1.755
1.735
1.74
1.769
1.764
1.735
1.745
1.774
1.779
1.769
1.764
1.794
1.804
1.779
1.774
1.804
1.813
1.804
1.799
1.818
1.848
1.823
1.804
1.818
1.833
1.823
1.804
1.813
1.838
1.833
1.808
1.813
1.838
1.838
1.813
1.804
1.823
1.828
1.794
1.779
1.799
1.808
1.794
1.784
1.799
1.813
1.794
1.769
1.774
1.784
1.769
1.74
1.735
1.75
1.74
1.706
1.711
1.73
1.725
1.706
1.696
1.711
1.706
1.667
1.652
1.667
1.676
1.662
1.652
1.672
1.696
1.672
1.652
1.662
1.676
1.667
1.647
1.647
1.672
1.662
1.637
1.637
1.662
1.662
1.647
1.642
1.667
1.681
1.657
1.652
1.676
1.686
1.667
1.652
1.662
1.676
1.647
1.628
1.642
1.662
1.662
1.647
1.652
1.681
1.676
1.652
1.662
1.691
1.691
1.676
1.672
1.691
1.696
1.667
1.647
1.667
1.672
1.662
1.652
1.667
1.686
1.662
1.642
1.662
1.681
1.672
1.657
1.662
1.691
1.681
1.657
1.662
1.681
1.681
1.667
1.662
1.686
1.696
1.667
1.657
1.676
1.681
1.667
1.652
1.672
1.696
1.676
1.662
1.681
1.701
1.696
1.672
1.672
1.696
1.681
1.652
1.652
1.672
1.676
1.662
1.657
1.681
1.691
1.662
1.657
1.681
1.686
1.672
1.657
1.672
1.696
1.676
1.662
1.686
1.706
1.696
1.676
1.676
1.701
1.691
1.662
1.662
1.681
1.681
1.662
1.652
1.676
1.681
1.657
1.652
1.681
1.696
1.686
1.681
1.701
1.72
1.696
1.676
1.696
1.716
1.706
1.691
1.696
1.72
1.711
1.686
1.691
1.716
1.716
1.701
1.696
1.72
1.73
1.701
1.696
1.716
1.725
1.711
1.696
1.711
1.73
1.706
1.691
1.706
1.72
1.716
1.701
1.711
1.735
1.72
1.686
1.686
1.701
1.696
1.676
1.662
1.686
1.686
1.652
1.642
1.667
1.672
1.657
1.652
1.672
1.696
1.672
1.657
1.672
1.686
1.676
1.657
1.662
1.686
1.672
1.647
1.657
1.686
1.691
1.676
1.672
1.701
1.706
1.681
1.672
1.696
1.706
1.696
1.691
1.716
1.745
1.735
1.735
1.769
1.804
1.813
1.813
1.823
1.852
1.838
1.799
1.784
1.779
1.75
1.696
1.647
1.628
1.588
1.52
1.471
1.466
1.461
1.447
1.447
1.481
1.53
1.54
1.554
1.598
1.637
1.652
1.647
1.657
1.691
1.686
1.667
1.676
1.711
1.711
1.701
1.696
1.725
1.735
1.706
1.701
1.725
1.735
1.72
1.706
1.72
1.735
1.711
1.691
1.706
1.725
1.716
1.701
1.711
1.74
1.73
1.706
1.716
1.745
1.745
1.735
1.73
1.755
1.76
1.73
1.72
1.74
1.75
1.735
1.72
1.74
1.76
1.74
1.725
1.74
1.76
1.755
1.745
1.755
1.784
1.774
1.75
1.76
1.784
1.784
1.764
1.76
1.779
1.779
1.75
1.745
1.769
1.784
1.779
1.779
1.799
1.823
1.804
1.784
1.799
1.818
1.804
1.789
1.794
1.818
1.808
1.789
1.804
1.838
1.843
1.823
1.823
1.848
1.857
1.833
1.833
1.857
1.872
1.857
1.852
1.867
1.882
1.852
1.828
1.843
1.857
1.848
1.828
1.833
1.852
1.838
1.808
1.808
1.823
1.818
1.799
1.794
1.813
1.818
1.784
1.769
1.789
1.789
1.764
1.745
1.755
1.764
1.73
1.706
1.711
1.72
1.706
1.681
1.686
1.711
1.696
1.672
1.676
1.696
1.691
1.667
1.662
1.681
1.681
1.652
1.647
1.667
1.681
1.662
1.652
1.667
1.681
1.657
1.637
1.652
1.662
1.652
1.632
1.642
1.672
1.662
1.637
1.647
1.672
1.672
1.657
1.657
1.681
1.681
1.657
1.647
1.672
1.676
1.662
1.652
1.672
1.691
1.672
1.657
1.676
1.696
1.691
1.676
1.686
1.706
1.696
1.662
1.667
1.686
1.691
1.676
1.676
1.701
1.701
1.667
1.662
1.681
1.696
1.681
1.672
1.686
1.701
1.672
1.652
1.667
1.681
1.672
1.657
1.667
1.696
1.691
1.667
1.676
1.696
1.691
1.667
1.662
1.686
1.696
1.667
1.662
1.676
1.681
1.672
1.662
1.681
1.701
1.681
1.667
1.691
1.706
1.696
1.676
1.676
1.696
1.686
1.662
1.667
1.696
1.701
1.686
1.686
1.711
1.711
1.681
1.672
1.691
1.701
1.686
1.681
1.706
1.725
1.706
1.691
1.711
1.72
1.711
1.691
1.696
1.72
1.711
1.686
1.696
1.725
1.73
1.716
1.716
1.735
1.735
1.706
1.696
1.711
1.711
1.686
1.667
1.676
1.686
1.657
1.637
1.652
1.672
1.667
1.657
1.667
1.691
1.676
1.647
1.657
1.676
1.672
1.652
1.647
1.676
1.681
1.652
1.652
1.672
1.681
1.667
1.652
1.667
1.681
1.647
1.628
1.647
1.662
1.652
1.642
1.662
1.701
1.701
1.686
1.706
1.73
1.73
1.72
1.73
1.764
1.779
1.755
1.764
1.794
1.804
1.784
1.76
1.76
1.755
1.696
1.647
1.628
1.598
1.54
1.481
1.452
1.452
1.427
1.403
1.427
1.476
1.505
1.525
1.554
1.608
1.632
1.618
1.628
1.657
1.672
1.662
1.652
1.672
1.691
1.672
1.657
1.681
1.696
1.686
1.672
1.676
1.696
1.676
1.652
1.662
1.686
1.691
1.676
1.681
1.711
1.711
1.681
1.681
1.701
1.711
1.696
1.686
1.711
1.73
1.706
1.691
1.711
1.72
1.711
1.691
1.696
1.72
1.701
1.676
1.686
1.706
1.706
1.691
1.696
1.725
1.73
1.706
1.701
1.725
1.735
1.725
1.716
1.735
1.75
1.725
1.711
1.73
1.74
1.735
1.72
1.735
1.764
1.755
1.74
1.75
1.774
1.769
1.75
1.745
1.769
1.769
1.74
1.745
1.779
1.794
1.784
1.784
1.804
1.818
1.794
1.779
1.794
1.808
1.799
1.784
1.799
1.823
1.813
1.789
1.799
1.818
1.818
1.799
1.804
1.828
1.828
1.804
1.799
1.818
1.818
1.799
1.779
1.789
1.799
1.76
1.74
1.755
1.764
1.745
1.72
1.725
1.745
1.716
1.681
1.681
1.691
1.681
1.652
1.647
1.667
1.667
1.637
1.637
1.662
1.667
1.652
1.642
1.652
1.657
1.623
1.603
1.618
1.628
1.618
1.603
1.613
1.642
1.632
1.618
1.628
1.647
1.637
1.613
1.608
1.628
1.623
1.588
1.584
1.608
1.613
1.598
1.598
1.623
1.642
1.618
1.608
1.628
1.637
1.628
1.618
1.632
1.657
1.637
1.618
1.623
1.647
1.642
1.623
1.623
1.647
1.647
1.628
1.632
1.657
1.667
1.647
1.632
1.647
1.657
1.628
1.613
1.637
1.657
1.652
1.642
1.652
1.672
1.652
1.623
1.623
1.637
1.632
1.613
1.618
1.642
1.647
1.618
1.623
1.642
1.647
1.632
1.628
1.647
1.662
1.632
1.623
1.642
1.657
1.642
1.628
1.642
1.667
1.652
1.632
1.642
1.662
1.657
1.637
1.637
1.662
1.657
1.623
1.623
1.647
1.657
1.652
1.642
1.672
1.686
1.662
1.647
1.676
1.686
1.676
1.657
1.667
1.691
1.672
1.647
1.662
1.686
1.686
1.667
1.672
1.691
1.686
1.647
1.637
1.652
1.652
1.632
1.613
1.632
1.647
1.618
1.608
1.628
1.642
1.628
1.608
1.618
1.637
1.618
1.598
1.613
1.637
1.637
1.623
1.628
1.652
1.652
1.618
1.613
1.628
1.632
1.618
1.608
1.632
1.647
1.618
1.603
1.623
1.637
1.628
1.618
1.642
1.672
1.667
1.662
1.691
1.725
1.74
1.735
1.75
1.784
1.789
1.769
1.774
1.789
1.774
1.735
1.696
1.681
1.652
1.584
1.53
1.505
1.476
1.432
1.398
1.398
1.422
1.422
1.417
1.457
1.505
1.535
1.544
1.574
1.623
1.632
1.613
1.623
1.652
1.657
1.647
1.642
1.662
1.676
1.652
1.642
1.662
1.676
1.667
1.652
1.662
1.681
1.662
1.642
1.657
1.681
1.681
1.667
1.672
1.696
1.691
1.657
1.657
1.681
1.686
1.676
1.667
1.696
1.706
1.681
1.676
1.701
1.711
1.701
1.686
1.701
1.725
1.711
1.691
1.711
1.73
1.72
1.701
1.701
1.72
1.716
1.681
1.681
1.701
1.706
1.686
1.686
1.711
1.73
1.706
1.701
1.725
1.745
1.74
1.725
1.735
1.76
1.74
1.716
1.73
1.75
1.75
1.735
1.74
1.764
1.764
1.73
1.73
1.764
1.774
1.764
1.769
1.794
1.808
1.774
1.76
1.774
1.784
1.769
1.755
1.764
1.784
1.769
1.755
1.779
1.799
1.794
1.774
1.779
1.804
1.794
1.76
1.755
1.769
1.769
1.745
1.73
1.75
1.755
1.72
1.706
1.716
1.72
1.701
1.676
1.681
1.701
1.681
1.657
1.667
1.686
1.672
1.642
1.637
1.657
1.647
1.618
1.618
1.647
1.652
1.637
1.628
1.642
1.647
1.608
1.593
1.613
1.623
1.613
1.598
1.618
1.642
1.623
1.603
1.613
1.632
1.628
1.608
1.613
1.637
1.632
1.603
1.608
1.628
1.632
1.618
1.618
1.647
1.662
1.637
1.623
1.637
1.642
1.618
1.598
1.613
1.637
1.618
1.603
1.628
1.657
1.657
1.637
1.637
1.662
1.647
1.613
1.613
1.632
1.642
1.623
1.618
1.642
1.652
1.628
1.623
1.642
1.652
1.642
1.628
1.637
1.657
1.632
1.613
1.623
1.642
1.637
1.618
1.623
1.652
1.647
1.618
1.618
1.642
1.642
1.628
1.623
1.647
1.657
1.628
1.623
1.652
1.667
1.657
1.642
1.662
1.686
1.667
1.647
1.662
1.681
1.676
1.652
1.652
1.676
1.667
1.637
1.637
1.657
1.662
1.647
1.647
1.676
1.691
1.667
1.657
1.676
1.681
1.662
1.637
1.637
1.647
1.618
1.593
1.613
1.637
1.637
1.618
1.628
1.647
1.637
1.603
1.603
1.618
1.613
1.593
1.588
1.613
1.628
1.598
1.584
1.603
1.613
1.603
1.593
1.613
1.637
1.623
1.603
1.618
1.637
1.623
1.603
1.608
1.632
1.628
1.603
1.613
1.647
1.662
1.657
1.662
1.701
1.73
1.72
1.73
1.769
1.789
1.784
1.764
1.769
1.764
1.711
1.647
1.618
1.593
1.544
1.486
1.452
1.442
1.403
1.364
1.364
1.393
1.408
1.413
1.432
1.481
1.525
1.525
1.549
1.593
1.623
1.618
1.613
1.628
1.652
1.628
1.603
1.618
1.637
1.632
1.623
1.632
1.667
1.662
1.637
1.642
1.662
1.662
1.647
1.642
1.672
1.686
1.662
1.652
1.676
1.691
1.676
1.657
1.672
1.691
1.667
1.647
1.662
1.686
1.686
1.676
1.681
1.711
1.696
1.662
1.657
1.676
1.672
1.657
1.657
1.691
1.711
1.686
1.686
1.711
1.716
1.691
1.667
1.676
1.696
1.672
1.662
1.686
1.716
1.716
1.706
1.711
1.73
1.72
1.691
1.696
1.72
1.725
1.716
1.716
1.745
1.755
1.73
1.72
1.735
1.74
1.725
1.711
1.73
1.755
1.745
1.735
1.764
1.789
1.784
1.769
1.769
1.789
1.779
1.75
1.755
1.779
1.784
1.769
1.764
1.784
1.784
1.75
1.735
1.75
1.75
1.73
1.716
1.73
1.75
1.73
1.711
1.72
1.735
1.72
1.696
1.691
1.706
1.686
1.647
1.647
1.667
1.667
1.647
1.642
1.657
1.652
1.613
1.593
1.608
1.608
1.588
1.579
1.598
1.618
1.598
1.579
1.593
1.608
1.598
1.574
1.574
1.598
1.593
1.569
1.579
1.603
1.603
1.584
1.579
1.598
1.603
1.569
1.564
1.588
1.603
1.593
1.584
1.608
1.628
1.608
1.588
1.598
1.613
1.603
1.584
1.588
1.613
1.603
1.574
1.579
1.603
1.608
1.593
1.588
1.613
1.623
1.593
1.588
1.613
1.623
1.608
1.593
1.608
1.628
1.603
1.584
1.598
1.608
1.598
1.579
1.588
1.623
1.623
1.603
1.613
1.637
1.637
1.623
1.618
1.642
1.647
1.618
1.608
1.632
1.642
1.632
1.623
1.642
1.662
1.642
1.623
1.637
1.652
1.642
1.623
1.632
1.657
1.647
1.623
1.632
1.657
1.662
1.647
1.647
1.667
1.667
1.632
1.628
1.647
1.652
1.637
1.623
1.632
1.642
1.608
1.584
1.593
1.608
1.598
1.574
1.579
1.603
1.593
1.574
1.579
1.603
1.598
1.584
1.579
1.603
1.608
1.579
1.574
1.598
1.603
1.588
1.574
1.593
1.613
1.593
1.574
1.588
1.598
1.588
1.574
1.584
1.618
1.613
1.598
1.613
1.647
1.657
1.647
1.657
1.691
1.711
1.701
1.711
1.745
1.76
1.75
1.735
1.745
1.745
1.696
1.647
1.637
1.623
1.579
1.525
1.491
1.471
1.417
1.369
1.359
1.383
1.393
1.398
1.422
1.476
1.515
1.515
1.535
1.574
1.588
1.588
1.588
1.613
1.637
1.623
1.618
1.642
1.662
1.647
1.632
1.637
1.662
1.647
1.623
1.632
1.662
1.667
1.652
1.652
1.676
1.676
1.647
1.642
1.662
1.672
1.657
1.647
1.667
1.691
1.667
1.652
1.672
1.691
1.686
1.672
1.681
1.706
1.691
1.667
1.672
1.691
1.686
1.667
1.667
1.696
1.706
1.681
1.676
1.701
1.716
1.701
1.691
1.711
1.725
1.701
1.686
1.706
1.72
1.72
1.706
1.716
1.74
1.725
1.706
1.716
1.74
1.745
1.725
1.73
1.76
1.769
1.74
1.745
1.774
1.784
1.764
1.755
1.769
1.784
1.755
1.74
1.764
1.794
1.794
1.789
1.804
1.833
1.823
1.794
1.799
1.818
1.808
1.779
1.774
1.799
1.804
1.779
1.774
1.794
1.799
1.779
1.774
1.784
1.799
1.774
1.755
1.769
1.774
1.755
1.725
1.725
1.74
1.72
1.681
1.686
1.701
1.701
1.676
1.672
1.691
1.686
1.647
1.637
1.652
1.647
1.628
1.608
1.623
1.632
1.603
1.588
1.608
1.628
1.618
1.608
1.618
1.642
1.628
1.603
1.608
1.628
1.623
1.608
1.608
1.632
1.637
1.613
1.613
1.637
1.642
1.628
1.618
1.637
1.652
1.628
1.613
1.632
1.647
1.642
1.632
1.642
1.667
1.652
1.628
1.637
1.657
1.657
1.642
1.647
1.676
1.681
1.652
1.647
1.667
1.672
1.647
1.637
1.657
1.676
1.657
1.647
1.676
1.696
1.686
1.672
1.686
1.706
1.686
1.657
1.667
1.686
1.686
1.667
1.667
1.696
1.701
1.676
1.676
1.706
1.711
1.691
1.676
1.686
1.686
1.647
1.623
1.632
1.647
1.632
1.618
1.632
1.662
1.642
1.623
1.632
1.652
1.642
1.623
1.618
1.642
1.637
1.608
1.608
1.632
1.637
1.623
1.613
1.632
1.642
1.618
1.598
1.618
1.637
1.628
1.613
1.623
1.642
1.628
1.603
1.618
1.642
1.642
1.628
1.632
1.667
1.672
1.647
1.657
1.691
1.706
1.701
1.701
1.73
1.75
1.725
1.711
1.72
1.725
1.701
1.672
1.662
1.657
1.608
1.54
1.505
1.481
1.437
1.393
1.383
1.408
1.422
1.422
1.452
1.505
1.544
1.554
1.564
1.603
1.632
1.618
1.618
1.642
1.662
1.657
1.637
1.647
1.672
1.652
1.632
1.642
1.667
1.667
1.652
1.657
1.686
1.681
1.652
1.657
1.681
1.691
1.681
1.667
1.691
1.706
1.672
1.657
1.672
1.686
1.676
1.662
1.676
1.711
1.696
1.676
1.691
1.716
1.711
1.691
1.691
1.716
1.716
1.681
1.681
1.701
1.711
1.701
1.701
1.725
1.745
1.72
1.711
1.73
1.745
1.735
1.716
1.72
1.74
1.72
1.701
1.72
1.75
1.755
1.745
1.75
1.779
1.774
1.745
1.74
1.764
1.769
1.755
1.75
1.779
1.799
1.784
1.784
1.808
1.823
1.808
1.794
1.804
1.823
1.808
1.784
1.799
1.818
1.823
1.808
1.813
1.838
1.838
1.804
1.804
1.828
1.833
1.818
1.808
1.828
1.838
1.813
1.799
1.808
1.808
1.784
1.75
1.75
1.76
1.73
1.701
1.706
1.725
1.72
1.701
1.701
1.72
1.711
1.672
1.662
1.676
1.672
1.652
1.637
1.657
1.667
1.632
1.618
1.632
1.642
1.628
1.613
1.623
1.642
1.623
1.598
1.608
1.628
1.628
1.608
1.618
1.642
1.642
1.618
1.618
1.642
1.647
1.632
1.623
1.642
1.647
1.623
1.608
1.628
1.642
1.632
1.628
1.642
1.672
1.657
1.637
1.652
1.676
1.667
1.642
1.642
1.667
1.662
1.637
1.642
1.676
1.686
1.672
1.672
1.691
1.706
1.676
1.667
1.686
1.696
1.681
1.662
1.672
1.696
1.681
1.662
1.676
1.701
1.696
1.681
1.681
1.711
1.701
1.672
1.672
1.691
1.691
1.672
1.657
1.676
1.681
1.647
1.632
1.647
1.657
1.647
1.632
1.647
1.676
1.657
1.632
1.642
1.657
1.647
1.632
1.637
1.667
1.662
1.637
1.642
1.662
1.667
1.647
1.637
1.652
1.657
1.628
1.623
1.647
1.662
1.652
1.637
1.652
1.672
1.652
1.628
1.642
1.667
1.667
1.662
1.676
1.72
1.735
1.725
1.745
1.779
1.789
1.774
1.76
1.774
1.769
1.725
1.696
1.696
1.681
1.642
1.598
1.579
1.564
1.505
1.457
1.447
1.461
1.461
1.461
1.491
1.544
1.574
1.579
1.608
1.647
1.657
1.642
1.637
1.662
1.676
1.652
1.647
1.676
1.691
1.681
1.667
1.681
1.706
1.686
1.667
1.681
1.706
1.701
1.691
1.696
1.725
1.72
1.691
1.691
1.716
1.72
1.711
1.706
1.725
1.735
1.701
1.691
1.711
1.72
1.711
1.701
1.716
1.74
1.725
1.706
1.72
1.74
1.74
1.72
1.725
1.755
1.75
1.72
1.725
1.745
1.75
1.725
1.716
1.74
1.75
1.725
1.72
1.745
1.76
1.75
1.74
1.755
1.774
1.75
1.73
1.745
1.764
1.764
1.75
1.755
1.784
1.784
1.764
1.774
1.799
1.804
1.794
1.789
1.813
1.823
1.794
1.789
1.813
1.828
1.818
1.804
1.818
1.843
1.818
1.799
1.813
1.833
1.833
1.818
1.823
1.852
1.843
1.813
1.808
1.828
1.818
1.799
1.789
1.804
1.808
1.774
1.76
1.779
1.784
1.764
1.74
1.75
1.764
1.74
1.716
1.725
1.735
1.725
1.711
1.711
1.73
1.716
1.681
1.676
1.686
1.681
1.657
1.647
1.676
1.686
1.667
1.657
1.681
1.691
1.681
1.662
1.676
1.691
1.667
1.642
1.662
1.681
1.676
1.662
1.667
1.691
1.691
1.662
1.667
1.686
1.681
1.662
1.652
1.667
1.672
1.642
1.637
1.662
1.686
1.681
1.676
1.701
1.725
1.706
1.686
1.696
1.706
1.696
1.676
1.681
1.711
1.706
1.681
1.691
1.72
1.725
1.706
1.701
1.725
1.73
1.701
1.696
1.725
1.74
1.725
1.716
1.73
1.75
1.725
1.701
1.716
1.73
1.72
1.701
1.706
1.725
1.716
1.686
1.686
1.701
1.696
1.672
1.662
1.681
1.686
1.662
1.652
1.672
1.681
1.667
1.652
1.667
1.686
1.667
1.652
1.672
1.696
1.686
1.667
1.667
1.691
1.676
1.647
1.652
1.681
1.686
1.672
1.667
1.691
1.696
1.662
1.647
1.672
1.681
1.676
1.672
1.696
1.725
1.716
1.706
1.735
1.764
1.76
1.75
1.76
1.794
1.789
1.76
1.75
1.755
1.725
1.676
1.632
1.618
1.584
1.515
1.476
1.476
1.476
1.461
1.457
1.491
1.54
1.549
1.559
1.603
1.642
1.652
1.647
1.662
1.691
1.681
1.662
1.672
1.701
1.706
1.691
1.686
1.716
1.72
1.696
1.686
1.711
1.725
1.711
1.701
1.72
1.735
1.711
1.686
1.696
1.716
1.711
1.701
1.716
1.755
1.745
1.725
1.73
1.75
1.75
1.725
1.716
1.735
1.735
1.706
1.701
1.725
1.735
1.725
1.716
1.735
1.755
1.73
1.716
1.735
1.755
1.755
1.75
1.76
1.784
1.764
1.73
1.735
1.755
1.755
1.735
1.73
1.755
1.769
1.75
1.75
1.774
1.789
1.774
1.76
1.774
1.794
1.774
1.76
1.774
1.789
1.784
1.769
1.784
1.818
1.808
1.789
1.799
1.823
1.823
1.804
1.799
1.823
1.833
1.804
1.799
1.823
1.833
1.818
1.804
1.823
1.838
1.813
1.804
1.823
1.843
1.828
1.804
1.804
1.823
1.804
1.769
1.769
1.784
1.779
1.76
1.755
1.769
1.769
1.73
1.716
1.735
1.74
1.72
1.706
1.72
1.73
1.696
1.672
1.681
1.696
1.681
1.662
1.676
1.706
1.701
1.676
1.681
1.691
1.681
1.657
1.647
1.662
1.667
1.637
1.637
1.667
1.681
1.667
1.657
1.672
1.686
1.657
1.637
1.652
1.676
1.672
1.662
1.672
1.696
1.686
1.662
1.667
1.696
1.701
1.686
1.686
1.716
1.716
1.686
1.676
1.696
1.706
1.686
1.672
1.696
1.716
1.696
1.681
1.696
1.711
1.701
1.681
1.686
1.716
1.711
1.691
1.701
1.725
1.725
1.706
1.701
1.725
1.73
1.701
1.701
1.725
1.735
1.72
1.706
1.72
1.73
1.701
1.676
1.686
1.701
1.691
1.672
1.676
1.696
1.681
1.652
1.657
1.681
1.681
1.662
1.657
1.676
1.676
1.642
1.637
1.657
1.667
1.652
1.642
1.667
1.686
1.667
1.647
1.657
1.672
1.657
1.637
1.647
1.676
1.667
1.647
1.662
1.686
1.691
1.676
1.676
1.701
1.711
1.691
1.696
1.73
1.755
1.745
1.74
1.76
1.784
1.76
1.74
1.75
1.75
1.72
1.681
1.662
1.657
1.613
1.549
1.52
1.51
1.486
1.457
1.452
1.476
1.491
1.486
1.51
1.564
1.603
1.623
1.628
1.662
1.681
1.657
1.637
1.652
1.672
1.667
1.657
1.672
1.706
1.696
1.676
1.691
1.716
1.711
1.691
1.691
1.716
1.72
1.686
1.681
1.696
1.701
1.686
1.676
1.696
1.716
1.691
1.681
1.701
1.72
1.711
1.696
1.706
1.73
1.72
1.696
1.706
1.73
1.73
1.716
1.716
1.74
1.745
1.716
1.711
1.74
1.75
1.735
1.725
1.745
1.76
1.735
1.716
1.735
1.75
1.74
1.725
1.735
1.76
1.75
1.73
1.74
1.764
1.769
1.755
1.75
1.774
1.779
1.755
1.755
1.779
1.784
1.769
1.764
1.789
1.813
1.799
1.789
1.808
1.823
1.813
1.794
1.808
1.833
1.823
1.804
1.813
1.833
1.828
1.808
1.808
1.828
1.823
1.794
1.789
1.818
1.828
1.813
1.799
1.813
1.823
1.779
1.755
1.764
1.774
1.755
1.735
1.74
1.764
1.745
1.72
1.73
1.745
1.735
1.706
1.691
1.706
1.696
1.657
1.652
1.667
1.672
1.657
1.652
1.676
1.696
1.667
1.642
1.657
1.662
1.647
1.628
1.628
1.647
1.632
1.608
1.623
1.647
1.652
1.637
1.642
1.672
1.667
1.637
1.628
1.647
1.647
1.628
1.618
1.642
1.662
1.637
1.632
1.652
1.667
1.662
1.642
1.652
1.676
1.662
1.637
1.647
1.667
1.662
1.652
1.657
1.691
1.691
1.667
1.662
1.686
1.696
1.681
1.676
1.701
1.716
1.691
1.681
1.701
1.716
1.711
1.691
1.701
1.716
1.701
1.681
1.691
1.716
1.711
1.696
1.696
1.72
1.72
1.691
1.686
1.711
1.711
1.696
1.691
1.711
1.73
1.701
1.691
1.711
1.725
1.711
1.686
1.696
1.711
1.686
1.652
1.662
1.676
1.676
1.657
1.662
1.696
1.696
1.667
1.662
1.686
1.691
1.676
1.667
1.686
1.696
1.667
1.652
1.672
1.686
1.676
1.667
1.686
1.716
1.701
1.681
1.691
1.706
1.696
1.672
1.667
1.691
1.696
1.676
1.686
1.725
1.745
1.745
1.745
1.774
1.799
1.779
1.769
1.794
1.808
1.804
1.784
1.789
1.794
1.745
1.691
1.662
1.647
1.598
1.54
1.5
1.491
1.466
1.432
1.437
1.476
1.505
1.515
1.535
1.588
1.632
1.628
1.632
1.662
1.681
1.676
1.667
1.686
1.72
1.706
1.691
1.706
1.73
1.73
1.711
1.716
1.74
1.735
1.706
1.711
1.73
1.745
1.73
1.725
1.75
1.764
1.735
1.725
1.745
1.755
1.74
1.725
1.745
1.769
1.755
1.73
1.74
1.755
1.745
1.725
1.725
1.75
1.755
1.73
1.735
1.764
1.774
1.76
1.75
1.769
1.784
1.76
1.75
1.774
1.789
1.779
1.76
1.769
1.794
1.774
1.75
1.764
1.789
1.789
1.774
1.784
1.813
1.813
1.784
1.779
1.799
1.799
1.779
1.774
1.794
1.813
1.794
1.789
1.818
1.843
1.838
1.828
1.843
1.862
1.843
1.818
1.828
1.848
1.848
1.833
1.843
1.872
1.867
1.838
1.833
1.848
1.843
1.818
1.804
1.828
1.838
1.813
1.808
1.833
1.852
1.843
1.828
1.833
1.843
1.813
1.784
1.789
1.804
1.794
1.774
1.779
1.799
1.794
1.764
1.764
1.779
1.769
1.745
1.725
1.74
1.745
1.711
1.701
1.72
1.73
1.716
1.701
1.716
1.735
1.711
1.681
1.691
1.711
1.701
1.681
1.676
1.696
1.686
1.657
1.657
1.681
1.681
1.667
1.662
1.686
1.701
1.672
1.662
1.681
1.696
1.681
1.676
1.696
1.72
1.706
1.686
1.701
1.72
1.711
1.686
1.681
1.706
1.701
1.672
1.676
1.706
1.711
1.696
1.691
1.711
1.716
1.681
1.667
1.681
1.696
1.686
1.676
1.686
1.711
1.691
1.672
1.686
1.711
1.701
1.686
1.691
1.72
1.725
1.706
1.716
1.74
1.745
1.725
1.711
1.72
1.725
1.691
1.672
1.686
1.701
1.701
1.701
1.725
1.755
1.74
1.72
1.735
1.75
1.735
1.706
1.706
1.73
1.735
1.716
1.73
1.76
1.76
1.73
1.711
1.72
1.716
1.672
1.652
1.672
1.686
1.686
1.681
1.701
1.725
1.701
1.676
1.686
1.701
1.691
1.672
1.672
1.696
1.691
1.662
1.667
1.691
1.691
1.672
1.667
1.686
1.696
1.667
1.652
1.667
1.681
1.672
1.662
1.681
1.701
1.686
1.672
1.691
1.711
1.706
1.686
1.696
1.73
1.73
1.72
1.745
1.794
1.818
1.818
1.823
1.848
1.852
1.818
1.794
1.794
1.774
1.73
1.686
1.667
1.657
1.598
1.535
1.51
1.491
1.457
1.422
1.427
1.461
1.476
1.481
1.515
1.579
1.618
1.632
1.647
1.686
1.701
1.681
1.676
1.706
1.72
1.706
1.691
1.711
1.73
1.706
1.686
1.701
1.72
1.716
1.701
1.706
1.73
1.72
1.696
1.701
1.725
1.73
1.72
1.72
1.745
1.75
1.72
1.706
1.72
1.73
1.716
1.701
1.72
1.745
1.73
1.72
1.735
1.75
1.735
1.72
1.72
1.745
1.74
1.716
1.72
1.745
1.745
1.73
1.72
1.745
1.75
1.725
1.72
1.74
1.75
1.74
1.725
1.735
1.76
1.735
1.72
1.735
1.755
1.755
1.745
1.76
1.789
1.779
1.745
1.745
1.764
1.764
1.75
1.745
1.774
1.789
1.764
1.764
1.789
1.804
1.789
1.774
1.789
1.808
1.794
1.779
1.799
1.823
1.818
1.799
1.799
1.823
1.813
1.784
1.779
1.799
1.799
1.784
1.779
1.804
1.808
1.779
1.764
1.784
1.789
1.779
1.764
1.779
1.794
1.764
1.74
1.75
1.764
1.745
1.716
1.711
1.725
1.711
1.676
1.676
1.696
1.696
1.676
1.672
1.696
1.706
1.672
1.657
1.672
1.676
1.657
1.637
1.647
1.662
1.637
1.618
1.637
1.652
1.647
1.628
1.632
1.652
1.647
1.618
1.618
1.642
1.642
1.628
1.628
1.657
1.667
1.637
1.632
1.652
1.662
1.652
1.642
1.667
1.686
1.662
1.642
1.657
1.676
1.672
1.652
1.652
1.676
1.667
1.642
1.647
1.667
1.672
1.652
1.652
1.676
1.676
1.647
1.637
1.657
1.667
1.652
1.642
1.662
1.681
1.662
1.642
1.662
1.676
1.667
1.647
1.647
1.676
1.667
1.647
1.657
1.681
1.686
1.672
1.667
1.691
1.686
1.652
1.642
1.657
1.667
1.647
1.637
1.652
1.681
1.667
1.657
1.676
1.696
1.691
1.672
1.676
1.706
1.696
1.672
1.676
1.701
1.701
1.686
1.681
1.701
1.701
1.667
1.652
1.676
1.691
1.681
1.667
1.681
1.701
1.676
1.652
1.662
1.672
1.662
1.637
1.642
1.667
1.657
1.632
1.637
1.657
1.652
1.632
1.623
1.647
1.652
1.628
1.628
1.652
1.667
1.652
1.637
1.657
1.672
1.642
1.623
1.632
1.647
1.637
1.618
1.628
1.647
1.642
1.618
1.632
1.662
1.672
1.667
1.676
1.711
1.725
1.706
1.711
1.745
1.764
1.76
1.76
1.789
1.813
1.789
1.76
1.76
1.74
1.691
1.628
1.588
1.564
1.515
1.457
1.432
1.432
1.422
1.403
1.413
1.457
1.481
1.481
1.505
1.564
1.598
1.608
1.613
1.637
1.662
1.637
1.623
1.637
1.657
1.657
1.642
1.657
1.691
1.686
1.662
1.667
1.686
1.681
1.657
1.652
1.672
1.672
1.642
1.642
1.667
1.676
1.667
1.657
1.681
1.706
1.686
1.672
1.686
1.706
1.701
1.681
1.686
1.711
1.701
1.672
1.681
1.701
1.706
1.691
1.691
1.72
1.73
1.701
1.696
1.716
1.716
1.696
1.676
1.691
1.706
1.686
1.676
1.701
1.725
1.716
1.696
1.701
1.716
1.701
1.681
1.696
1.725
1.74
1.73
1.74
1.764
1.764
1.725
1.711
1.725
1.725
1.711
1.696
1.72
1.745
1.73
1.72
1.745
1.769
1.76
1.745
1.755
1.774
1.76
1.735
1.745
1.769
1.774
1.76
1.764
1.794
1.799
1.774
1.769
1.784
1.779
1.75
1.73
1.745
1.755
1.73
1.711
1.73
1.745
1.745
1.73
1.735
1.76
1.74
1.711
1.711
1.725
1.72
1.696
1.686
1.706
1.701
1.667
1.662
1.676
1.676
1.657
1.642
1.657
1.672
1.637
1.618
1.632
1.642
1.632
1.613
1.618
1.642
1.632
1.613
1.618
1.637
1.632
1.613
1.608
1.632
1.632
1.608
1.603
1.632
1.642
1.632
1.623
1.642
1.657
1.628
1.608
1.623
1.637
1.632
1.613
1.623
1.647
1.637
1.613
1.623
1.642
1.637
1.623
1.628
1.652
1.657
1.628
1.632
1.657
1.667
1.652
1.642
1.657
1.672
1.637
1.623
1.637
1.652
1.642
1.628
1.632
1.662
1.652
1.632
1.647
1.676
1.672
1.647
1.637
1.662
1.662
1.632
1.632
1.662
1.672
1.662
1.657
1.672
1.686
1.652
1.632
1.642
1.652
1.637
1.623
1.632
1.657
1.642
1.623
1.632
1.657
1.662
1.652
1.662
1.696
1.706
1.681
1.676
1.696
1.701
1.676
1.652
1.662
1.672
1.637
1.618
1.637
1.657
1.657
1.642
1.647
1.667
1.642
1.603
1.598
1.608
1.603
1.584
1.588
1.623
1.632
1.613
1.618
1.642
1.647
1.628
1.613
1.632
1.647
1.623
1.613
1.628
1.647
1.642
1.628
1.637
1.662
1.642
1.618
1.623
1.642
1.632
1.618
1.623
1.657
1.672
1.652
1.667
1.701
1.72
1.72
1.725
1.755
1.784
1.769
1.76
1.784
1.799
1.779
1.735
1.706
1.691
1.628
1.559
1.52
1.491
1.442
1.393
1.378
1.398
1.408
1.388
1.413
1.461
1.505
1.53
1.549
1.593
1.628
1.613
1.603
1.628
1.642
1.632
1.623
1.637
1.672
1.657
1.637
1.647
1.667
1.662
1.647
1.647
1.676
1.681
1.662
1.667
1.691
1.701
1.681
1.667
1.686
1.696
1.672
1.662
1.686
1.706
1.696
1.681
1.691
1.711
1.686
1.657
1.662
1.686
1.686
1.676
1.681
1.711
1.716
1.686
1.681
1.706
1.711
1.691
1.681
1.701
1.72
1.696
1.686
1.711
1.73
1.725
1.716
1.73
1.75
1.735
1.711
1.72
1.745
1.74
1.725
1.735
1.76
1.755
1.725
1.72
1.735
1.735
1.72
1.711
1.735
1.755
1.74
1.73
1.76
1.779
1.769
1.755
1.769
1.799
1.784
1.764
1.774
1.799
1.799
1.779
1.774
1.799
1.794
1.769
1.769
1.794
1.799
1.779
1.769
1.789
1.804
1.774
1.764
1.779
1.794
1.784
1.764
1.769
1.784
1.76
1.73
1.74
1.755
1.75
1.73
1.73
1.755
1.755
1.72
1.716
1.73
1.73
1.706
1.686
1.691
1.691
1.652
1.637
1.652
1.662
1.652
1.637
1.647
1.672
1.657
1.632
1.642
1.662
1.667
1.652
1.647
1.672
1.667
1.637
1.637
1.662
1.667
1.652
1.642
1.667
1.686
1.657
1.642
1.662
1.676
1.667
1.652
1.662
1.686
1.662
1.632
1.637
1.657
1.652
1.632
1.642
1.672
1.676
1.652
1.657
1.676
1.676
1.657
1.652
1.676
1.691
1.662
1.652
1.676
1.691
1.681
1.662
1.672
1.696
1.681
1.662
1.676
1.701
1.701
1.681
1.681
1.706
1.701
1.667
1.667
1.686
1.691
1.672
1.662
1.681
1.696
1.667
1.657
1.676
1.691
1.686
1.672
1.686
1.711
1.696
1.672
1.686
1.706
1.706
1.691
1.691
1.716
1.716
1.691
1.686
1.711
1.716
1.706
1.686
1.701
1.706
1.672
1.652
1.662
1.672
1.662
1.647
1.657
1.681
1.662
1.642
1.652
1.667
1.657
1.632
1.632
1.662
1.667
1.647
1.657
1.686
1.691
1.672
1.662
1.672
1.676
1.642
1.623
1.642
1.657
1.647
1.637
1.652
1.681
1.672
1.652
1.672
1.691
1.691
1.686
1.701
1.74
1.75
1.74
1.755
1.794
1.813
1.808
1.804
1.828
1.828
1.779
1.735
1.711
1.672
1.608
1.544
1.51
1.486
1.432
1.383
1.388
1.413
1.422
1.422
1.447
1.5
1.535
1.54
1.569
1.618
1.642
1.642
1.652
1.686
1.701
1.672
1.667
1.686
1.696
1.681
1.667
1.681
1.711
1.696
1.681
1.696
1.716
1.716
1.696
1.701
1.725
1.725
1.696
1.701
1.725
1.73
1.711
1.701
1.716
1.72
1.691
1.676
1.701
1.72
1.716
1.711
1.73
1.76
1.745
1.725
1.735
1.75
1.74
1.716
1.711
1.735
1.73
1.701
1.706
1.735
1.74
1.73
1.725
1.755
1.769
1.74
1.73
1.75
1.76
1.75
1.73
1.74
1.76
1.745
1.72
1.735
1.76
1.76
1.745
1.755
1.789
1.789
1.769
1.774
1.799
1.808
1.799
1.799
1.818
1.828
1.799
1.789
1.808
1.818
1.804
1.784
1.794
1.818
1.804
1.794
1.808
1.828
1.828
1.813
1.813
1.838
1.833
1.804
1.799
1.818
1.818
1.804
1.799
1.823
1.833
1.804
1.789
1.808
1.823
1.808
1.794
1.808
1.828
1.804
1.774
1.774
1.784
1.769
1.745
1.74
1.755
1.74
1.706
1.706
1.725
1.725
1.701
1.691
1.706
1.716
1.681
1.667
1.686
1.696
1.686
1.672
1.686
1.706
1.681
1.657
1.667
1.681
1.681
1.672
1.681
1.711
1.711
1.686
1.691
1.711
1.706
1.681
1.667
1.686
1.691
1.662
1.652
1.681
1.691
1.681
1.667
1.686
1.706
1.686
1.667
1.686
1.706
1.696
1.676
1.681
1.711
1.711
1.686
1.686
1.706
1.706
1.686
1.676
1.696
1.701
1.672
1.657
1.681
1.696
1.691
1.676
1.696
1.716
1.696
1.676
1.686
1.701
1.701
1.676
1.681
1.706
1.701
1.681
1.691
1.716
1.72
1.701
1.691
1.716
1.73
1.706
1.701
1.725
1.735
1.72
1.706
1.72
1.735
1.696
1.662
1.662
1.676
1.672
1.652
1.657
1.681
1.676
1.652
1.657
1.676
1.681
1.667
1.662
1.681
1.686
1.662
1.647
1.667
1.672
1.657
1.637
1.652
1.672
1.652
1.632
1.647
1.672
1.672
1.657
1.662
1.686
1.681
1.652
1.657
1.686
1.691
1.681
1.681
1.716
1.735
1.725
1.73
1.769
1.794
1.794
1.779
1.799
1.823
1.799
1.764
1.755
1.74
1.696
1.637
1.593
1.574
1.52
1.452
1.413
1.408
1.398
1.383
1.388
1.432
1.466
1.476
1.505
1.564
1.613
1.623
1.623
1.647
1.672
1.652
1.637
1.657
1.681
1.676
1.662
1.672
1.706
1.701
1.672
1.676
1.696
1.701
1.686
1.681
1.706
1.711
1.681
1.676
1.696
1.711
1.706
1.701
1.725
1.75
1.735
1.716
1.73
1.745
1.73
1.706
1.706
1.72
1.716
1.686
1.691
1.716
1.725
1.716
1.716
1.74
1.755
1.73
1.725
1.745
1.75
1.73
1.711
1.72
1.74
1.72
1.706
1.725
1.75
1.755
1.745
1.76
1.789
1.779
1.745
1.74
1.764
1.764
1.755
1.755
1.784
1.799
1.779
1.774
1.799
1.804
1.784
1.764
1.779
1.794
1.774
1.76
1.779
1.804
1.804
1.794
1.808
1.838
1.838
1.813
1.818
1.838
1.838
1.818
1.808
1.833
1.838
1.808
1.804
1.828
1.838
1.823
1.808
1.823
1.838
1.808
1.789
1.799
1.818
1.813
1.794
1.799
1.823
1.813
1.779
1.779
1.789
1.784
1.764
1.75
1.764
1.76
1.72
1.706
1.716
1.72
1.701
1.681
1.696
1.711
1.696
1.676
1.691
1.706
1.696
1.672
1.672
1.691
1.681
1.647
1.647
1.672
1.672
1.652
1.647
1.672
1.686
1.662
1.652
1.676
1.691
1.681
1.672
1.691
1.706
1.681
1.657
1.672
1.681
1.676
1.657
1.662
1.686
1.681
1.657
1.667
1.691
1.686
1.667
1.662
1.681
1.691
1.662
1.657
1.686
1.706
1.696
1.686
1.706
1.72
1.691
1.667
1.681
1.701
1.691
1.672
1.681
1.711
1.701
1.676
1.681
1.701
1.701
1.686
1.681
1.706
1.716
1.691
1.691
1.72
1.725
1.716
1.701
1.716
1.73
1.706
1.686
1.696
1.711
1.701
1.676
1.676
1.696
1.681
1.642
1.642
1.657
1.652
1.637
1.632
1.652
1.657
1.632
1.628
1.647
1.657
1.642
1.628
1.647
1.667
1.647
1.632
1.647
1.667
1.662
1.642
1.652
1.676
1.667
1.637
1.642
1.662
1.667
1.652
1.647
1.676
1.686
1.662
1.667
1.701
1.735
1.74
1.75
1.784
1.813
1.799
1.784
1.804
1.813
1.789
1.745
1.72
1.711
1.667
1.603
1.559
1.53
1.476
1.417
1.393
1.408
1.417
1.408
1.432
1.491
1.54
1.569
1.588
1.628
1.662
1.642
1.628
1.647
1.667
1.662
1.652
1.667
1.696
1.686
1.662
1.676
1.696
1.696
1.676
1.667
1.686
1.696
1.672
1.667
1.696
1.706
1.701
1.691
1.706
1.725
1.701
1.676
1.691
1.701
1.691
1.676
1.686
1.716
1.711
1.691
1.701
1.725
1.73
1.716
1.716
1.73
1.735
1.701
1.691
1.711
1.725
1.716
1.711
1.73
1.755
1.735
1.716
1.735
1.75
1.74
1.725
1.73
1.76
1.75
1.73
1.74
1.764
1.764
1.75
1.745
1.769
1.779
1.75
1.745
1.764
1.774
1.764
1.76
1.784
1.813
1.794
1.774
1.794
1.808
1.799
1.774
1.779
1.799
1.789
1.769
1.779
1.804
1.813
1.799
1.799
1.823
1.833
1.804
1.799
1.823
1.833
1.823
1.808
1.823
1.843
1.813
1.794
1.808
1.818
1.804
1.779
1.784
1.804
1.789
1.764
1.764
1.784
1.784
1.764
1.76
1.779
1.774
1.74
1.725
1.74
1.74
1.72
1.701
1.711
1.72
1.691
1.676
1.691
1.706
1.696
1.676
1.676
1.701
1.681
1.647
1.647
1.667
1.662
1.647
1.652
1.681
1.691
1.667
1.662
1.686
1.701
1.691
1.681
1.701
1.716
1.691
1.672
1.691
1.716
1.711
1.696
1.706
1.725
1.711
1.681
1.686
1.706
1.701
1.676
1.676
1.706
1.72
1.706
1.706
1.735
1.745
1.73
1.716
1.725
1.74
1.711
1.691
1.711
1.73
1.725
1.716
1.73
1.755
1.73
1.691
1.681
1.691
1.676
1.652
1.647
1.672
1.676
1.652
1.647
1.667
1.672
1.652
1.632
1.647
1.662
1.642
1.632
1.652
1.667
1.657
1.637
1.637
1.657
1.642
1.613
1.618
1.642
1.647
1.632
1.628
1.652
1.652
1.623
1.618
1.642
1.657
1.642
1.637
1.657
1.681
1.667
1.662
1.686
1.711
1.711
1.706
1.725
1.755
1.745
1.72
1.716
1.72
1.696
1.642
1.608
1.598
1.569
1.5
1.461
1.447
1.422
1.388
1.369
1.388
1.413
1.413
1.427
1.481
1.53
1.554
1.564
1.598
1.642
1.642
1.628
1.642
1.672
1.672
1.652
1.647
1.667
1.672
1.637
1.632
1.657
1.667
1.657
1.652
1.676
1.701
1.681
1.672
1.696
1.716
1.706
1.686
1.691
1.711
1.696
1.667
1.676
1.701
1.706
1.696
1.696
1.716
1.716
1.686
1.676
1.696
1.701
1.686
1.676
1.701
1.725
1.706
1.696
1.716
1.735
1.73
1.711
1.716
1.74
1.72
1.696
1.701
1.725
1.73
1.716
1.716
1.745
1.75
1.72
1.716
1.74
1.75
1.74
1.74
1.76
1.784
1.764
1.75
1.769
1.784
1.779
1.76
1.774
1.799
1.789
1.774
1.784
1.808
1.804
1.789
1.789
1.813
1.813
1.784
1.784
1.808
1.823
1.813
1.808
1.833
1.852
1.828
1.813
1.833
1.848
1.838
1.823
1.823
1.843
1.823
1.789
1.789
1.808
1.808
1.789
1.789
1.813
1.813
1.784
1.774
1.784
1.774
1.745
1.725
1.735
1.745
1.716
1.696
1.711
1.72
1.711
1.696
1.706
1.73
1.711
1.676
1.676
1.686
1.676
1.652
1.642
1.662
1.662
1.637
1.637
1.667
1.681
1.672
1.662
1.676
1.686
1.657
1.642
1.657
1.672
1.662
1.647
1.657
1.686
1.676
1.657
1.667
1.691
1.686
1.667
1.662
1.681
1.676
1.642
1.637
1.667
1.681
1.681
1.676
1.696
1.716
1.696
1.676
1.691
1.701
1.686
1.667
1.672
1.696
1.681
1.657
1.672
1.706
1.711
1.696
1.696
1.716
1.716
1.686
1.681
1.701
1.706
1.691
1.681
1.706
1.72
1.696
1.676
1.691
1.696
1.676
1.652
1.652
1.672
1.657
1.628
1.637
1.662
1.657
1.642
1.637
1.662
1.662
1.628
1.623
1.637
1.637
1.623
1.613
1.637
1.657
1.632
1.623
1.637
1.652
1.642
1.628
1.642
1.667
1.657
1.632
1.647
1.676
1.676
1.667
1.676
1.706
1.711
1.696
1.706
1.745
1.764
1.755
1.745
1.764
1.784
1.76
1.735
1.735
1.72
1.672
1.613
1.574
1.549
1.486
1.408
1.378
1.378
1.373
1.359
1.378
1.432
1.461
1.471
1.51
1.564
1.608
1.618
1.623
1.642
1.662
1.637
1.628
1.647
1.667
1.662
1.652
1.667
1.696
1.686
1.667
1.676
1.701
1.696
1.676
1.681
1.706
1.711
1.686
1.686
1.711
1.725
1.711
1.706
1.725
1.74
1.711
1.696
1.716
1.72
1.706
1.686
1.696
1.72
1.711
1.691
1.706
1.73
1.735
1.72
1.72
1.745
1.75
1.72
1.716
1.74
1.75
1.74
1.735
1.755
1.769
1.735
1.716
1.725
1.74
1.73
1.72
1.735
1.764
1.76
1.745
1.764
1.789
1.784
1.764
1.76
1.789
1.794
1.769
1.769
1.794
1.804
1.789
1.784
1.804
1.818
1.789
1.779
1.799
1.813
1.804
1.789
1.799
1.823
1.808
1.784
1.799
1.823
1.828
1.818
1.818
1.843
1.843
1.808
1.799
1.818
1.823
1.808
1.799
1.818
1.833
1.804
1.794
1.808
1.818
1.804
1.784
1.794
1.813
1.794
1.764
1.774
1.789
1.784
1.764
1.755
1.769
1.76
1.72
1.716
1.73
1.73
1.706
1.691
1.706
1.72
1.691
1.676
1.691
1.701
1.686
1.667
1.676
1.706
1.686
1.667
1.676
1.706
1.706
1.691
1.686
1.711
1.711
1.672
1.667
1.686
1.686
1.672
1.662
1.686
1.706
1.686
1.681
1.701
1.72
1.716
1.701
1.706
1.725
1.706
1.676
1.686
1.711
1.706
1.691
1.691
1.72
1.725
1.701
1.701
1.72
1.73
1.716
1.711
1.725
1.735
1.706
1.691
1.711
1.725
1.716
1.701
1.711
1.735
1.72
1.696
1.701
1.716
1.706
1.681
1.676
1.696
1.686
1.652
1.647
1.667
1.667
1.652
1.642
1.662
1.681
1.657
1.642
1.662
1.672
1.662
1.652
1.672
1.691
1.676
1.647
1.652
1.667
1.657
1.637
1.632
1.657
1.667
1.647
1.652
1.676
1.691
1.676
1.681
1.711
1.73
1.716
1.716
1.755
1.789
1.789
1.774
1.784
1.804
1.779
1.74
1.73
1.725
1.686
1.632
1.593
1.574
1.525
1.452
1.408
1.408
1.408
1.398
1.403
1.447
1.491
1.5
1.525
1.579
1.618
1.632
1.632
1.657
1.691
1.681
1.667
1.681
1.706
1.706
1.691
1.691
1.716
1.711
1.676
1.681
1.706
1.711
1.701
1.696
1.72
1.735
1.711
1.696
1.716
1.73
1.725
1.711
1.725
1.745
1.73
1.711
1.72
1.74
1.73
1.716
1.716
1.75
1.75
1.725
1.73
1.755
1.76
1.745
1.735
1.76
1.769
1.745
1.73
1.75
1.764
1.76
1.75
1.764
1.789
1.774
1.745
1.75
1.764
1.76
1.745
1.755
1.784
1.794
1.769
1.774
1.804
1.813
1.799
1.789
1.804
1.813
1.789
1.779
1.804
1.823
1.818
1.813
1.833
1.857
1.843
1.818
1.828
1.848
1.838
1.818
1.818
1.838
1.843
1.818
1.823
1.848
1.857
1.843
1.833
1.852
1.862
1.828
1.813
1.833
1.843
1.833
1.813
1.823
1.843
1.828
1.804
1.808
1.828
1.818
1.794
1.789
1.808
1.799
1.764
1.755
1.774
1.769
1.745
1.735
1.75
1.764
1.74
1.73
1.75
1.764
1.75
1.73
1.735
1.74
1.711
1.672
1.676
1.696
1.691
1.676
1.681
1.711
1.716
1.691
1.696
1.716
1.716
1.701
1.686
1.701
1.711
1.681
1.672
1.686
1.701
1.686
1.672
1.681
1.701
1.686
1.662
1.672
1.696
1.696
1.681
1.681
1.706
1.706
1.672
1.672
1.696
1.706
1.696
1.696
1.725
1.745
1.72
1.701
1.716
1.725
1.711
1.691
1.701
1.725
1.706
1.686
1.706
1.73
1.73
1.711
1.711
1.73
1.725
1.691
1.691
1.711
1.716
1.706
1.696
1.725
1.735
1.711
1.696
1.716
1.72
1.701
1.676
1.676
1.686
1.662
1.632
1.632
1.647
1.642
1.623
1.623
1.652
1.652
1.632
1.642
1.667
1.676
1.662
1.652
1.672
1.681
1.647
1.632
1.647
1.662
1.647
1.628
1.642
1.672
1.667
1.657
1.681
1.706
1.706
1.696
1.711
1.745
1.755
1.735
1.745
1.774
1.784
1.774
1.764
1.779
1.774
1.72
1.676
1.657
1.628
1.574
1.515
1.476
1.452
1.398
1.354
1.359
1.393
1.417
1.427
1.466
1.53
1.564
1.564
1.588
1.628
1.642
1.632
1.628
1.657
1.681
1.662
1.657
1.686
1.706
1.696
1.676
1.686
1.706
1.681
1.657
1.672
1.696
1.696
1.681
1.691
1.725
1.73
1.706
1.706
1.725
1.725
1.711
1.701
1.72
1.725
1.696
1.686
1.711
1.73
1.725
1.72
1.735
1.755
1.735
1.706
1.716
1.725
1.716
1.691
1.691
1.72
1.725
1.711
1.716
1.74
1.75
1.74
1.735
1.764
1.779
1.75
1.74
1.755
1.769
1.755
1.74
1.755
1.784
1.769
1.75
1.764
1.784
1.784
1.764
1.764
1.789
1.784
1.76
1.764
1.794
1.804
1.789
1.784
1.808
1.823
1.799
1.794
1.818
1.838
1.823
1.813
1.823
1.848
1.823
1.794
1.804
1.823
1.818
1.804
1.799
1.823
1.823
1.794
1.794
1.813
1.818
1.804
1.794
1.813
1.823
1.794
1.774
1.789
1.789
1.769
1.75
1.755
1.774
1.755
1.73
1.745
1.764
1.755
1.725
1.72
1.735
1.725
1.691
1.681
1.696
1.701
1.681
1.672
1.691
1.701
1.667
1.652
1.667
1.676
1.667
1.657
1.676
1.701
1.676
1.652
1.662
1.676
1.667
1.642
1.637
1.657
1.647
1.618
1.618
1.647
1.652
1.642
1.637
1.662
1.676
1.652
1.642
1.662
1.676
1.662
1.642
1.652
1.672
1.647
1.628
1.642
1.667
1.672
1.662
1.672
1.696
1.696
1.667
1.667
1.681
1.676
1.657
1.647
1.672
1.681
1.652
1.642
1.667
1.676
1.667
1.647
1.657
1.676
1.657
1.628
1.632
1.642
1.632
1.608
1.608
1.623
1.618
1.584
1.584
1.603
1.608
1.593
1.588
1.613
1.628
1.603
1.593
1.618
1.628
1.623
1.608
1.618
1.642
1.618
1.598
1.608
1.628
1.623
1.608
1.613
1.637
1.632
1.598
1.598
1.623
1.628
1.618
1.618
1.657
1.686
1.676
1.686
1.72
1.745
1.74
1.725
1.735
1.74
1.696
1.642
1.623
1.603
1.559
1.491
1.447
1.422
1.383
1.329
1.329
1.359
1.373
1.383
1.413
1.476
1.525
1.535
1.554
1.593
1.618
1.613
1.603
1.618
1.637
1.628
1.613
1.628
1.652
1.652
1.632
1.637
1.662
1.652
1.623
1.628
1.652
1.667
1.652
1.652
1.681
1.696
1.667
1.652
1.667
1.676
1.667
1.652
1.662
1.686
1.672
1.657
1.672
1.701
1.701
1.686
1.686
1.711
1.701
1.672
1.672
1.691
1.696
1.686
1.686
1.72
1.735
1.706
1.691
1.711
1.72
1.706
1.686
1.701
1.725
1.711
1.696
1.716
1.74
1.74
1.725
1.735
1.76
1.76
1.735
1.735
1.76
1.764
1.745
1.735
1.76
1.774
1.75
1.745
1.769
1.789
1.779
1.769
1.784
1.808
1.789
1.769
1.784
1.808
1.804
1.789
1.794
1.823
1.818
1.789
1.789
1.808
1.818
1.804
1.804
1.823
1.833
1.799
1.789
1.804
1.808
1.789
1.769
1.774
1.789
1.764
1.74
1.755
1.779
1.774
1.755
1.755
1.774
1.764
1.73
1.72
1.735
1.725
1.701
1.691
1.711
1.72
1.696
1.686
1.701
1.706
1.686
1.667
1.676
1.691
1.667
1.642
1.652
1.667
1.662
1.647
1.647
1.672
1.662
1.632
1.637
1.662
1.657
1.637
1.623
1.637
1.642
1.613
1.608
1.632
1.647
1.642
1.642
1.667
1.701
1.681
1.657
1.662
1.676
1.667
1.642
1.642
1.667
1.657
1.632
1.637
1.662
1.672
1.657
1.652
1.672
1.676
1.647
1.637
1.662
1.676
1.667
1.657
1.676
1.696
1.676
1.652
1.662
1.676
1.667
1.637
1.637
1.657
1.647
1.613
1.608
1.623
1.618
1.603
1.593
1.618
1.628
1.598
1.588
1.608
1.613
1.598
1.584
1.598
1.623
1.613
1.598
1.618
1.632
1.623
1.598
1.598
1.613
1.598
1.569
1.574
1.608
1.623
1.618
1.618
1.647
1.662
1.637
1.628
1.652
1.672
1.672
1.667
1.696
1.73
1.72
1.716
1.735
1.755
1.735
1.696
1.672
1.662
1.618
1.54
1.491
1.461
1.417
1.359
1.329
1.339
1.359
1.354
1.378
1.442
1.491
1.52
1.54
1.584
1.628
1.618
1.603
1.618
1.642
1.637
1.628
1.637
1.667
1.667
1.637
1.642
1.667
1.672
1.657
1.647
1.672
1.676
1.647
1.642
1.667
1.681
1.672
1.662
1.686
1.706
1.691
1.676
1.696
1.716
1.706
1.691
1.696
1.72
1.711
1.686
1.686
1.711
1.716
1.701
1.701
1.72
1.73
1.706
1.696
1.716
1.725
1.716
1.701
1.72
1.74
1.716
1.696
1.716
1.745
1.745
1.735
1.75
1.779
1.774
1.75
1.75
1.774
1.779
1.76
1.755
1.779
1.784
1.755
1.75
1.774
1.794
1.784
1.769
1.789
1.808
1.784
1.764
1.779
1.804
1.799
1.784
1.794
1.823
1.823
1.799
1.804
1.828
1.838
1.823
1.818
1.843
1.852
1.823
1.813
1.833
1.843
1.828
1.813
1.828
1.852
1.833
1.818
1.828
1.843
1.828
1.799
1.789
1.804
1.789
1.755
1.75
1.774
1.774
1.76
1.755
1.779
1.784
1.75
1.73
1.745
1.745
1.725
1.711
1.72
1.735
1.706
1.681
1.691
1.701
1.686
1.662
1.662
1.681
1.672
1.642
1.647
1.672
1.672
1.652
1.652
1.676
1.686
1.662
1.652
1.676
1.691
1.676
1.667
1.681
1.701
1.676
1.657
1.676
1.696
1.686
1.667
1.672
1.696
1.686
1.657
1.657
1.676
1.676
1.662
1.657
1.676
1.681
1.647
1.637
1.662
1.681
1.676
1.667
1.686
1.706
1.686
1.662
1.672
1.681
1.667
1.637
1.632
1.657
1.642
1.613
1.613
1.628
1.628
1.608
1.598
1.618
1.623
1.593
1.584
1.603
1.613
1.603
1.593
1.618
1.642
1.623
1.598
1.608
1.623
1.608
1.593
1.603
1.632
1.628
1.608
1.618
1.642
1.642
1.623
1.618
1.642
1.652
1.628
1.628
1.662
1.681
1.681
1.676
1.696
1.716
1.691
1.676
1.691
1.701
1.681
1.637
1.608
1.593
1.54
1.466
1.417
1.398
1.364
1.334
1.329
1.373
1.413
1.417
1.452
1.51
1.554
1.564
1.574
1.598
1.628
1.608
1.593
1.613
1.642
1.642
1.632
1.642
1.672
1.667
1.647
1.657
1.676
1.676
1.662
1.652
1.676
1.681
1.657
1.652
1.681
1.696
1.686
1.672
1.681
1.701
1.676
1.657
1.667
1.686
1.681
1.676
1.686
1.716
1.711
1.686
1.691
1.716
1.72
1.706
1.696
1.72
1.725
1.701
1.691
1.711
1.72
1.706
1.696
1.716
1.74
1.725
1.706
1.72
1.74
1.73
1.716
1.725
1.755
1.75
1.725
1.73
1.76
1.769
1.755
1.755
1.789
1.799
1.774
1.769
1.794
1.804
1.789
1.779
1.794
1.813
1.794
1.774
1.794
1.818
1.813
1.799
1.808
1.833
1.823
1.794
1.794
1.813
1.808
1.794
1.794
1.818
1.828
1.804
1.799
1.823
1.833
1.813
1.794
1.804
1.818
1.794
1.769
1.789
1.808
1.804
1.789
1.784
1.804
1.779
1.745
1.74
1.76
1.76
1.74
1.735
1.76
1.764
1.735
1.716
1.73
1.735
1.711
1.691
1.701
1.711
1.681
1.657
1.672
1.691
1.686
1.667
1.667
1.691
1.681
1.652
1.652
1.672
1.672
1.652
1.647
1.681
1.691
1.672
1.667
1.686
1.691
1.672
1.657
1.672
1.691
1.667
1.652
1.667
1.691
1.686
1.676
1.681
1.701
1.686
1.657
1.657
1.676
1.676
1.657
1.657
1.686
1.696
1.667
1.662
1.686
1.691
1.672
1.652
1.662
1.672
1.642
1.618
1.628
1.637
1.623
1.593
1.588
1.608
1.598
1.574
1.584
1.613
1.628
1.613
1.618
1.642
1.647
1.608
1.593
1.608
1.618
1.603
1.593
1.608
1.623
1.603
1.584
1.598
1.613
1.603
1.588
1.598
1.623
1.618
1.593
1.603
1.632
1.637
1.628
1.628
1.662
1.686
1.667
1.672
1.696
1.716
1.711
1.696
1.701
1.701
1.657
1.613
1.593
1.574
1.52
1.452
1.413
1.393
1.354
1.31
1.315
1.349
1.378
1.403
1.442
1.505
1.559
1.564
1.584
1.628
1.642
1.632
1.618
1.632
1.647
1.618
1.598
1.618
1.642
1.642
1.632
1.652
1.681
1.676
1.652
1.657
1.676
1.672
1.652
1.647
1.672
1.676
1.652
1.647
1.672
1.686
1.672
1.667
1.686
1.706
1.686
1.667
1.681
1.696
1.686
1.672
1.681
1.711
1.706
1.681
1.691
1.716
1.716
1.696
1.696
1.716
1.725
1.696
1.691
1.716
1.72
1.706
1.696
1.711
1.735
1.72
1.706
1.73
1.755
1.75
1.735
1.735
1.755
1.74
1.711
1.716
1.745
1.755
1.745
1.755
1.784
1.799
1.774
1.769
1.794
1.804
1.789
1.779
1.799
1.818
1.799
1.779
1.794
1.804
1.794
1.784
1.794
1.828
1.823
1.799
1.808
1.838
1.838
1.818
1.808
1.818
1.813
1.779
1.769
1.789
1.799
1.784
1.774
1.789
1.804
1.779
1.755
1.764
1.779
1.769
1.75
1.755
1.774
1.76
1.72
1.72
1.73
1.72
1.696
1.686
1.706
1.711
1.681
1.681
1.706
1.716
1.701
1.676
1.686
1.691
1.657
1.628
1.637
1.647
1.642
1.637
1.652
1.691
1.691
1.672
1.676
1.696
1.686
1.662
1.652
1.676
1.686
1.657
1.657
1.681
1.691
1.681
1.667
1.681
1.696
1.667
1.647
1.662
1.681
1.672
1.652
1.662
1.691
1.681
1.662
1.667
1.696
1.696
1.681
1.681
1.701
1.696
1.652
1.632
1.647
1.642
1.623
1.608
1.623
1.637
1.613
1.593
1.613
1.632
1.623
1.603
1.608
1.632
1.618
1.593
1.598
1.628
1.628
1.613
1.608
1.637
1.642
1.618
1.608
1.623
1.632
1.618
1.608
1.628
1.642
1.618
1.603
1.628
1.652
1.652
1.647
1.672
1.711
1.72
1.706
1.72
1.75
1.75
1.73
1.72
1.735
1.725
1.676
1.647
1.642
1.613
1.554
1.491
1.457
1.432
1.378
1.344
1.359
1.393
1.413
1.432
1.476
1.544
1.569
1.574
1.603
1.642
1.657
1.647
1.647
1.672
1.681
1.657
1.652
1.672
1.686
1.672
1.662
1.681
1.701
1.676
1.657
1.672
1.691
1.681
1.667
1.681
1.711
1.701
1.676
1.691
1.716
1.72
1.706
1.706
1.73
1.735
1.701
1.691
1.706
1.716
1.701
1.691
1.706
1.73
1.711
1.706
1.725
1.75
1.745
1.725
1.735
1.755
1.74
1.711
1.716
1.735
1.735
1.72
1.725
1.755
1.764
1.745
1.75
1.779
1.794
1.784
1.769
1.779
1.794
1.769
1.75
1.769
1.784
1.774
1.769
1.784
1.813
1.804
1.779
1.789
1.808
1.808
1.794
1.794
1.823
1.833
1.813
1.813
1.843
1.852
1.833
1.818
1.833
1.848
1.823
1.804
1.823
1.843
1.838
1.823
1.828
1.852
1.833
1.804
1.813
1.833
1.833
1.808
1.799
1.818
1.818
1.784
1.769
1.784
1.784
1.769
1.76
1.774
1.784
1.76
1.74
1.755
1.764
1.75
1.72
1.716
1.73
1.711
1.681
1.686
1.711
1.716
1.701
1.706
1.73
1.735
1.701
1.691
1.706
1.711
1.691
1.681
1.701
1.72
1.701
1.691
1.711
1.73
1.725
1.711
1.716
1.74
1.72
1.686
1.681
1.701
1.696
1.676
1.681
1.711
1.72
1.696
1.696
1.72
1.725
1.706
1.691
1.706
1.716
1.686
1.662
1.672
1.681
1.667
1.642
1.642
1.662
1.642
1.618
1.623
1.647
1.652
1.637
1.637
1.657
1.657
1.618
1.603
1.618
1.623
1.603
1.598
1.623
1.647
1.628
1.618
1.642
1.657
1.647
1.628
1.628
1.647
1.637
1.618
1.632
1.657
1.657
1.642
1.642
1.667
1.672
1.642
1.647
1.676
1.696
1.691
1.686
1.706
1.716
1.676
1.637
1.628
1.613
1.569
1.515
1.486
1.466
1.422
1.364
1.354
1.369
1.373
1.373
1.398
1.457
1.5
1.505
1.54
1.588
1.623
1.623
1.623
1.642
1.662
1.642
1.623
1.642
1.662
1.662
1.647
1.657
1.681
1.667
1.642
1.657
1.686
1.691
1.676
1.686
1.716
1.73
1.706
1.696
1.711
1.716
1.696
1.676
1.691
1.706
1.681
1.667
1.691
1.716
1.711
1.691
1.701
1.73
1.716
1.696
1.706
1.725
1.725
1.706
1.711
1.74
1.75
1.716
1.706
1.725
1.73
1.711
1.696
1.716
1.73
1.711
1.701
1.725
1.745
1.745
1.735
1.75
1.774
1.769
1.74
1.755
1.774
1.774
1.76
1.76
1.784
1.789
1.764
1.764
1.789
1.804
1.794
1.789
1.808
1.828
1.799
1.789
1.804
1.818
1.813
1.799
1.813
1.838
1.823
1.794
1.799
1.813
1.813
1.794
1.789
1.813
1.813
1.789
1.784
1.808
1.813
1.794
1.779
1.799
1.808
1.774
1.745
1.745
1.75
1.73
1.701
1.706
1.725
1.72
1.696
1.711
1.73
1.725
1.701
1.696
1.711
1.706
1.667
1.662
1.681
1.691
1.676
1.667
1.686
1.706
1.676
1.662
1.681
1.701
1.686
1.667
1.667
1.686
1.667
1.647
1.657
1.681
1.686
1.672
1.667
1.691
1.686
1.657
1.647
1.672
1.681
1.676
1.672
1.701
1.725
1.701
1.681
1.691
1.701
1.686
1.667
1.672
1.691
1.681
1.657
1.667
1.686
1.672
1.642
1.628
1.637
1.632
1.598
1.593
1.613
1.628
1.618
1.618
1.637
1.652
1.623
1.608
1.628
1.642
1.637
1.618
1.628
1.647
1.632
1.603
1.608
1.628
1.623
1.603
1.608
1.632
1.637
1.608
1.608
1.637
1.647
1.632
1.623
1.647
1.667
1.647
1.642
1.672
1.706
1.711
1.701
1.72
1.74
1.716
1.667
1.637
1.613
1.574
1.515
1.481
1.476
1.447
1.388
1.369
1.378
1.383
1.373
1.378
1.417
1.466
1.481
1.505
1.559
1.603
1.608
1.603
1.618
1.642
1.632
1.608
1.618
1.642
1.647
1.637
1.642
1.672
1.676
1.647
1.652
1.676
1.686
1.672
1.657
1.672
1.681
1.652
1.637
1.657
1.672
1.667
1.657
1.672
1.701
1.691
1.667
1.676
1.701
1.701
1.681
1.676
1.696
1.696
1.667
1.662
1.686
1.691
1.681
1.672
1.696
1.716
1.696
1.686
1.706
1.725
1.72
1.701
1.706
1.725
1.711
1.691
1.711
1.745
1.75
1.745
1.75
1.779
1.779
1.745
1.73
1.75
1.755
1.745
1.74
1.764
1.784
1.76
1.74
1.76
1.774
1.769
1.76
1.779
1.808
1.799
1.779
1.789
1.808
1.799
1.779
1.779
1.799
1.808
1.779
1.784
1.808
1.818
1.799
1.789
1.804
1.818
1.794
1.769
1.779
1.789
1.774
1.755
1.76
1.784
1.764
1.735
1.74
1.76
1.76
1.74
1.735
1.755
1.75
1.711
1.701
1.716
1.716
1.691
1.676
1.686
1.691
1.662
1.652
1.672
1.686
1.672
1.652
1.657
1.676
1.662
1.642
1.647
1.667
1.662
1.647
1.652
1.672
1.672
1.637
1.637
1.662
1.676
1.662
1.657
1.676
1.691
1.662
1.647
1.662
1.676
1.672
1.657
1.672
1.701
1.686
1.662
1.667
1.686
1.681
1.662
1.662
1.691
1.696
1.676
1.681
1.701
1.701
1.676
1.657
1.667
1.672
1.632
1.608
1.623
1.632
1.628
1.613
1.623
1.647
1.632
1.608
1.623
1.642
1.642
1.623
1.618
1.642
1.637
1.608
1.603
1.623
1.628
1.618
1.608
1.628
1.637
1.608
1.588
1.608
1.623
1.618
1.608
1.623
1.652
1.647
1.628
1.642
1.672
1.681
1.672
1.676
1.716
1.725
1.711
1.716
1.74
1.735
1.701
1.667
1.652
1.632
1.569
1.515
1.496
1.471
1.432
1.393
1.393
1.408
1.398
1.388
1.413
1.461
1.486
1.5
1.535
1.584
1.608
1.593
1.603
1.637
1.657
1.647
1.647
1.667
1.686
1.667
1.652
1.676
1.691
1.681
1.667
1.676
1.701
1.686
1.662
1.676
1.701
1.706
1.691
1.691
1.716
1.711
1.681
1.676
1.696
1.711
1.696
1.691
1.711
1.725
1.696
1.672
1.691
1.701
1.691
1.681
1.696
1.73
1.725
1.706
1.72
1.74
1.73
1.706
1.706
1.73
1.735
1.711
1.716
1.745
1.755
1.735
1.72
1.74
1.755
1.735
1.72
1.74
1.755
1.755
1.74
1.755
1.779
1.769
1.75
1.769
1.794
1.799
1.784
1.779
1.804
1.804
1.769
1.764
1.784
1.789
1.779
1.774
1.799
1.818
1.799
1.794
1.818
1.833
1.823
1.808
1.813
1.833
1.804
1.774
1.774
1.789
1.784
1.769
1.769
1.799
1.799
1.764
1.76
1.774
1.769
1.75
1.74
1.745
1.755
1.72
1.696
1.711
1.72
1.711
1.691
1.696
1.716
1.701
1.676
1.686
1.706
1.701
1.681
1.676
1.696
1.691
1.657
1.652
1.672
1.672
1.647
1.632
1.647
1.657
1.628
1.618
1.642
1.662
1.657
1.647
1.662
1.686
1.672
1.642
1.647
1.667
1.657
1.642
1.647
1.676
1.681
1.662
1.667
1.691
1.701
1.681
1.662
1.672
1.676
1.647
1.632
1.652
1.672
1.667
1.662
1.676
1.706
1.696
1.672
1.672
1.681
1.672
1.652
1.657
1.681
1.681
1.657
1.657
1.681
1.691
1.672
1.657
1.672
1.686
1.657
1.637
1.652
1.657
1.642
1.623
1.632
1.652
1.637
1.613
1.623
1.647
1.642
1.628
1.623
1.647
1.647
1.618
1.613
1.637
1.642
1.628
1.613
1.628
1.637
1.608
1.593
1.613
1.632
1.628
1.618
1.628
1.657
1.642
1.618
1.628
1.652
1.652
1.642
1.652
1.691
1.706
1.691
1.706
1.74
1.75
1.735
1.725
1.75
1.76
1.725
1.691
1.681
1.662
1.613
1.554
1.52
1.496
1.432
1.373
1.359
1.373
1.378
1.378
1.408
1.466
1.5
1.505
1.54
1.588
1.608
1.603
1.603
1.632
1.652
1.632
1.623
1.642
1.662
1.652
1.642
1.647
1.672
1.657
1.637
1.652
1.681
1.681
1.667
1.667
1.691
1.691
1.662
1.662
1.686
1.691
1.676
1.667
1.691
1.706
1.681
1.667
1.681
1.701
1.691
1.681
1.696
1.716
1.696
1.672
1.686
1.711
1.711
1.696
1.696
1.72
1.725
1.701
1.701
1.725
1.73
1.716
1.706
1.73
1.74
1.716
1.706
1.725
1.74
1.73
1.716
1.73
1.75
1.735
1.716
1.735
1.76
1.76
1.745
1.75
1.779
1.779
1.755
1.755
1.779
1.789
1.779
1.774
1.794
1.808
1.784
1.769
1.789
1.804
1.794
1.779
1.794
1.813
1.794
1.764
1.774
1.789
1.789
1.769
1.774
1.799
1.799
1.769
1.769
1.799
1.808
1.799
1.794
1.808
1.818
1.784
1.755
1.764
1.764
1.735
1.706
1.711
1.725
1.706
1.686
1.691
1.711
1.706
1.686
1.681
1.706
1.701
1.667
1.657
1.667
1.667
1.642
1.628
1.647
1.657
1.632
1.623
1.647
1.662
1.657
1.642
1.652
1.672
1.647
1.623
1.632
1.647
1.637
1.623
1.623
1.652
1.657
1.632
1.628
1.652
1.657
1.637
1.628
1.642
1.652
1.628
1.623
1.647
1.662
1.652
1.637
1.652
1.672
1.652
1.623
1.628
1.647
1.647
1.632
1.628
1.642
1.632
1.598
1.598
1.618
1.623
1.608
1.598
1.628
1.642
1.623
1.613
1.632
1.647
1.632
1.618
1.628
1.647
1.632
1.608
1.618
1.637
1.637
1.623
1.623
1.647
1.642
1.608
1.603
1.628
1.632
1.618
1.613
1.637
1.657
1.642
1.637
1.662
1.681
1.672
1.657
1.662
1.681
1.657
1.628
1.632
1.652
1.652
1.637
1.642
1.667
1.667
1.632
1.632
1.642
1.642
1.618
1.603
1.618
1.628
1.603
1.593
1.608
1.618
1.608
1.593
1.598
1.618
1.603
1.584
1.598
1.623
1.623
1.603
1.603
1.628
1.628
1.598
1.598
1.618
1.628
1.608
1.603
1.623
1.637
1.613
1.608
1.628
1.647
1.642
1.637
1.657
1.691
1.681
1.672
1.701
1.735
1.745
1.74
1.76
1.799
1.799
1.76
1.74
1.725
1.686
1.623
1.559
1.525
1.476
1.398
1.344
1.344
1.354
1.349
1.354
1.398
1.457
1.486
1.505
1.549
1.593
1.608
1.598
1.608
1.637
1.637
1.613
1.618
1.647
1.652
1.642
1.637
1.657
1.672
1.642
1.632
1.657
1.672
1.662
1.652
1.667
1.691
1.676
1.652
1.662
1.686
1.681
1.667
1.667
1.691
1.691
1.662
1.667
1.696
1.701
1.691
1.686
1.711
1.72
1.696
1.681
1.701
1.706
1.691
1.676
1.696
1.725
1.716
1.696
1.716
1.74
1.735
1.716
1.72
1.74
1.73
1.701
1.696
1.725
1.73
1.72
1.711
1.735
1.75
1.725
1.716
1.74
1.76
1.755
1.745
1.76
1.779
1.764
1.745
1.76
1.784
1.784
1.774
1.784
1.813
1.813
1.784
1.779
1.799
1.799
1.784
1.779
1.804
1.813
1.789
1.784
1.804
1.813
1.794
1.769
1.769
1.789
1.769
1.755
1.774
1.794
1.794
1.779
1.784
1.808
1.799
1.764
1.76
1.774
1.774
1.755
1.74
1.755
1.76
1.73
1.716
1.73
1.74
1.725
1.711
1.72
1.74
1.716
1.686
1.691
1.706
1.701
1.676
1.676
1.696
1.691
1.662
1.662
1.681
1.676
1.652
1.642
1.657
1.662
1.632
1.623
1.647
1.662
1.647
1.637
1.647
1.672
1.652
1.628
1.632
1.652
1.642
1.628
1.628
1.657
1.662
1.637
1.647
1.672
1.676
1.657
1.652
1.667
1.672
1.632
1.613
1.628
1.637
1.623
1.608
1.623
1.647
1.628
1.608
1.628
1.642
1.642
1.623
1.628
1.652
1.652
1.623
1.628
1.652
1.657
1.637
1.628
1.642
1.652
1.623
1.618
1.637
1.647
1.632
1.618
1.632
1.657
1.637
1.613
1.628
1.652
1.647
1.637
1.642
1.667
1.657
1.632
1.637
1.662
1.667
1.657
1.657
1.686
1.701
1.676
1.657
1.672
1.672
1.652
1.632
1.642
1.652
1.628
1.603
1.613
1.628
1.623
1.603
1.608
1.637
1.637
1.613
1.613
1.632
1.632
1.618
1.608
1.623
1.632
1.608
1.603
1.632
1.647
1.637
1.618
1.628
1.637
1.608
1.584
1.593
1.613
1.613
1.598
1.603
1.637
1.637
1.623
1.632
1.662
1.672
1.662
1.667
1.696
1.716
1.696
1.696
1.725
1.75
1.755
1.755
1.779
1.799
1.774
1.73
1.716
1.701
1.652
1.584
1.53
1.5
1.447
1.378
1.359
1.373
1.383
1.378
1.398
1.447
1.491
1.5
1.52
1.564
1.598
1.598
1.598
1.618
1.647
1.628
1.613
1.632
1.652
1.652
1.642
1.652
1.681
1.681
1.652
1.652
1.676
1.681
1.662
1.657
1.681
1.701
1.676
1.667
1.691
1.696
1.681
1.662
1.667
1.686
1.662
1.647
1.672
1.706
1.706
1.691
1.696
1.72
1.711
1.681
1.676
1.691
1.691
1.681
1.681
1.711
1.73
1.706
1.706
1.73
1.745
1.735
1.72
1.73
1.745
1.72
1.691
1.701
1.72
1.72
1.711
1.725
1.76
1.764
1.74
1.745
1.774
1.774
1.76
1.75
1.774
1.784
1.76
1.755
1.779
1.799
1.794
1.784
1.804
1.823
1.813
1.799
1.818
1.833
1.823
1.804
1.804
1.823
1.813
1.779
1.779
1.804
1.804
1.794
1.789
1.813
1.823
1.799
1.789
1.808
1.813
1.804
1.789
1.804
1.818
1.794
1.769
1.779
1.789
1.774
1.74
1.73
1.745
1.73
1.696
1.696
1.716
1.716
1.696
1.696
1.72
1.735
1.701
1.686
1.696
1.701
1.676
1.657
1.667
1.681
1.662
1.642
1.657
1.681
1.676
1.662
1.662
1.681
1.667
1.637
1.637
1.657
1.652
1.632
1.623
1.642
1.642
1.613
1.608
1.632
1.652
1.642
1.632
1.647
1.662
1.637
1.613
1.628
1.652
1.652
1.642
1.652
1.676
1.667
1.637
1.637
1.652
1.647
1.628
1.623
1.652
1.667
1.642
1.628
1.647
1.652
1.632
1.618
1.637
1.662
1.642
1.623
1.637
1.652
1.652
