Num1
1.696
1.686
1.696
1.706
1.686
1.672
1.676
1.681
1.662
1.642
1.642
1.652
1.642
1.623
1.628
1.647
1.647
1.637
1.632
1.642
1.647
1.623
1.618
1.637
1.642
1.632
1.623
1.637
1.647
1.637
1.623
1.637
1.647
1.642
1.628
1.628
1.642
1.637
1.618
1.628
1.642
1.642
1.632
1.628
1.642
1.642
1.623
1.623
1.642
1.647
1.637
1.628
1.637
1.647
1.632
1.628
1.647
1.662
1.657
1.642
1.642
1.652
1.647
1.628
1.637
1.662
1.667
1.657
1.657
1.672
1.676
1.652
1.642
1.652
1.657
1.642
1.632
1.652
1.667
1.652
1.642
1.657
1.672
1.662
1.652
1.662
1.676
1.672
1.657
1.662
1.681
1.676
1.662
1.657
1.672
1.672
1.652
1.652
1.667
1.672
1.662
1.657
1.667
1.681
1.662
1.652
1.672
1.691
1.686
1.672
1.667
1.676
1.667
1.642
1.652
1.672
1.672
1.657
1.652
1.667
1.672
1.652
1.647
1.667
1.672
1.662
1.652
1.662
1.676
1.657
1.642
1.657
1.672
1.667
1.652
1.657
1.672
1.662
1.642
1.652
1.672
1.672
1.662
1.657
1.672
1.676
1.657
1.652
1.672
1.676
1.667
1.662
1.672
1.686
1.672
1.657
1.672
1.686
1.676
1.662
1.667
1.681
1.676
1.657
1.667
1.686
1.686
1.676
1.672
1.691
1.701
1.676
1.676
1.696
1.706
1.696
1.686
1.701
1.706
1.691
1.672
1.681
1.691
1.676
1.662
1.662
1.672
1.667
1.642
1.657
1.676
1.672
1.657
1.652
1.667
1.672
1.642
1.642
1.657
1.662
1.652
1.642
1.657
1.667
1.652
1.642
1.652
1.667
1.657
1.642
1.642
1.652
1.647
1.632
1.642
1.662
1.667
1.657
1.667
1.691
1.711
1.701
1.72
1.76
1.784
1.794
1.804
1.828
1.852
1.843
1.823
1.823
1.808
1.76
1.696
1.642
1.598
1.525
1.442
1.388
1.359
1.329
1.31
1.32
1.364
1.408
1.432
1.481
1.549
1.593
1.618
1.632
1.662
1.681
1.672
1.667
1.691
1.706
1.701
1.691
1.696
1.711
1.701
1.681
1.691
1.711
1.711
1.701
1.701
1.716
1.72
1.701
1.701
1.716
1.725
1.711
1.706
1.716
1.725
1.711
1.701
1.716
1.725
1.716
1.706
1.711
1.725
1.72
1.706
1.716
1.735
1.735
1.72
1.716
1.73
1.735
1.716
1.716
1.735
1.74
1.73
1.725
1.74
1.75
1.73
1.72
1.735
1.75
1.74
1.73
1.735
1.75
1.745
1.725
1.74
1.76
1.755
1.745
1.745
1.76
1.764
1.745
1.745
1.764
1.774
1.76
1.755
1.769
1.784
1.774
1.764
1.789
1.808
1.804
1.794
1.804
1.823
1.813
1.799
1.808
1.828
1.823
1.813
1.818
1.838
1.848
1.828
1.833
1.852
1.862
1.852
1.848
1.857
1.872
1.852
1.843
1.852
1.862
1.852
1.843
1.848
1.862
1.857
1.833
1.838
1.848
1.838
1.813
1.804
1.804
1.794
1.764
1.755
1.764
1.764
1.745
1.73
1.73
1.735
1.706
1.686
1.696
1.701
1.686
1.672
1.672
1.681
1.667
1.642
1.647
1.667
1.662
1.647
1.647
1.662
1.662
1.637
1.637
1.652
1.657
1.642
1.637
1.647
1.657
1.637
1.628
1.642
1.652
1.642
1.628
1.632
1.652
1.647
1.628
1.637
1.657
1.652
1.637
1.637
1.652
1.652
1.632
1.632
1.652
1.662
1.647
1.637
1.647
1.657
1.637
1.632
1.652
1.667
1.662
1.657
1.667
1.681
1.672
1.652
1.657
1.672
1.662
1.652
1.647
1.667
1.667
1.642
1.642
1.662
1.667
1.657
1.647
1.662
1.672
1.657
1.647
1.667
1.681
1.672
1.662
1.667
1.681
1.676
1.652
1.667
1.681
1.676
1.662
1.662
1.672
1.676
1.652
1.652
1.676
1.676
1.667
1.662
1.672
1.681
1.662
1.647
1.662
1.676
1.672
1.662
1.667
1.681
1.672
1.657
1.667
1.681
1.676
1.662
1.657
1.672
1.672
1.647
1.647
1.672
1.676
1.667
1.657
1.667
1.681
1.662
1.652
1.667
1.676
1.667
1.657
1.662
1.676
1.667
1.647
1.657
1.676
1.676
1.662
1.657
1.672
1.672
1.652
1.652
1.672
1.681
1.667
1.662
1.676
1.691
1.672
1.657
1.672
1.686
1.676
1.662
1.667
1.681
1.672
1.657
1.667
1.686
1.681
1.667
1.667
1.686
1.691
1.667
1.672
1.691
1.701
1.691
1.686
1.696
1.706
1.686
1.672
1.681
1.691
1.676
1.662
1.662
1.676
1.667
1.647
1.657
1.676
1.672
1.652
1.647
1.662
1.657
1.632
1.637
1.657
1.662
1.652
1.647
1.662
1.676
1.657
1.642
1.657
1.667
1.657
1.647
1.652
1.667
1.657
1.642
1.647
1.667
1.662
1.652
1.662
1.691
1.706
1.696
1.711
1.745
1.764
1.769
1.774
1.804
1.828
1.818
1.813
1.823
1.823
1.784
1.73
1.686
1.637
1.564
1.481
1.432
1.398
1.359
1.325
1.325
1.354
1.383
1.398
1.447
1.51
1.559
1.584
1.608
1.637
1.657
1.647
1.642
1.667
1.686
1.681
1.676
1.686
1.701
1.696
1.672
1.681
1.696
1.696
1.681
1.686
1.706
1.711
1.691
1.691
1.716
1.716
1.706
1.696
1.711
1.72
1.701
1.691
1.711
1.72
1.716
1.701
1.706
1.72
1.716
1.696
1.706
1.725
1.72
1.711
1.711
1.725
1.73
1.706
1.711
1.73
1.73
1.72
1.716
1.725
1.735
1.716
1.706
1.725
1.74
1.73
1.72
1.725
1.745
1.735
1.716
1.73
1.75
1.75
1.735
1.735
1.75
1.755
1.735
1.735
1.76
1.764
1.755
1.75
1.769
1.779
1.764
1.76
1.779
1.794
1.789
1.779
1.789
1.804
1.799
1.784
1.799
1.823
1.828
1.823
1.828
1.848
1.852
1.833
1.833
1.852
1.857
1.843
1.838
1.857
1.867
1.852
1.843
1.857
1.867
1.857
1.843
1.848
1.862
1.848
1.828
1.838
1.852
1.838
1.818
1.804
1.808
1.794
1.76
1.75
1.76
1.755
1.735
1.72
1.725
1.725
1.701
1.681
1.691
1.696
1.681
1.667
1.667
1.681
1.667
1.642
1.652
1.667
1.657
1.642
1.637
1.652
1.647
1.628
1.628
1.647
1.652
1.642
1.637
1.652
1.662
1.642
1.628
1.647
1.652
1.642
1.632
1.637
1.652
1.642
1.623
1.632
1.652
1.647
1.632
1.632
1.647
1.647
1.623
1.628
1.642
1.647
1.632
1.628
1.642
1.652
1.632
1.628
1.647
1.657
1.642
1.632
1.642
1.657
1.642
1.628
1.642
1.657
1.657
1.647
1.647
1.667
1.667
1.642
1.642
1.657
1.657
1.642
1.637
1.647
1.657
1.642
1.637
1.662
1.672
1.662
1.652
1.662
1.672
1.657
1.632
1.647
1.667
1.662
1.652
1.652
1.672
1.676
1.657
1.662
1.681
1.681
1.662
1.657
1.667
1.672
1.652
1.637
1.652
1.662
1.652
1.642
1.652
1.667
1.657
1.642
1.657
1.672
1.672
1.657
1.657
1.676
1.676
1.652
1.657
1.676
1.681
1.667
1.662
1.676
1.681
1.662
1.652
1.672
1.681
1.672
1.657
1.667
1.676
1.667
1.652
1.662
1.681
1.681
1.672
1.676
1.696
1.696
1.672
1.672
1.686
1.686
1.667
1.652
1.657
1.667
1.652
1.647
1.676
1.701
1.706
1.716
1.745
1.779
1.784
1.779
1.804
1.828
1.828
1.804
1.789
1.769
1.725
1.652
1.584
1.535
1.466
1.383
1.31
1.261
1.212
1.149
1.105
1.105
1.109
1.109
1.119
1.163
1.217
1.256
1.285
1.344
1.408
1.442
1.466
1.5
1.549
1.579
1.584
1.608
1.647
1.662
1.662
1.662
1.686
1.701
1.691
1.691
1.711
1.73
1.72
1.716
1.72
1.735
1.725
1.706
1.716
1.735
1.73
1.716
1.716
1.73
1.73
1.711
1.716
1.735
1.74
1.73
1.725
1.74
1.75
1.73
1.72
1.74
1.75
1.74
1.73
1.74
1.755
1.745
1.73
1.745
1.76
1.755
1.745
1.745
1.764
1.764
1.745
1.75
1.769
1.774
1.764
1.76
1.774
1.784
1.769
1.764
1.789
1.799
1.794
1.789
1.799
1.813
1.808
1.799
1.813
1.833
1.838
1.828
1.838
1.862
1.867
1.848
1.857
1.882
1.891
1.882
1.882
1.901
1.916
1.906
1.906
1.926
1.94
1.935
1.926
1.94
1.955
1.95
1.94
1.955
1.975
1.975
1.96
1.965
1.979
1.975
1.945
1.94
1.95
1.945
1.921
1.906
1.906
1.906
1.872
1.852
1.857
1.852
1.828
1.804
1.799
1.799
1.769
1.74
1.74
1.745
1.73
1.706
1.701
1.711
1.701
1.672
1.672
1.686
1.676
1.657
1.647
1.657
1.662
1.637
1.628
1.637
1.642
1.632
1.618
1.623
1.637
1.623
1.608
1.623
1.637
1.632
1.618
1.613
1.628
1.628
1.603
1.608
1.623
1.628
1.613
1.608
1.623
1.628
1.608
1.598
1.613
1.623
1.613
1.608
1.613
1.628
1.618
1.603
1.613
1.632
1.628
1.618
1.618
1.637
1.632
1.613
1.613
1.632
1.632
1.618
1.613
1.628
1.637
1.618
1.618
1.632
1.642
1.637
1.628
1.632
1.647
1.632
1.623
1.637
1.652
1.647
1.632
1.632
1.647
1.647
1.623
1.628
1.647
1.647
1.637
1.632
1.647
1.657
1.637
1.632
1.647
1.662
1.652
1.642
1.652
1.672
1.657
1.637
1.652
1.662
1.652
1.637
1.632
1.647
1.647
1.623
1.628
1.647
1.652
1.637
1.637
1.652
1.657
1.637
1.628
1.647
1.657
1.642
1.632
1.637
1.652
1.637
1.623
1.632
1.652
1.647
1.632
1.637
1.652
1.652
1.628
1.628
1.647
1.647
1.632
1.623
1.637
1.647
1.628
1.623
1.637
1.652
1.642
1.632
1.642
1.657
1.642
1.628
1.642
1.662
1.652
1.637
1.632
1.647
1.647
1.623
1.628
1.647
1.652
1.642
1.642
1.652
1.662
1.637
1.628
1.642
1.652
1.642
1.628
1.637
1.652
1.642
1.628
1.642
1.657
1.657
1.647
1.652
1.667
1.662
1.642
1.642
1.662
1.657
1.642
1.637
1.652
1.662
1.642
1.642
1.662
1.672
1.662
1.652
1.662
1.672
1.662
1.647
1.657
1.676
1.672
1.662
1.667
1.681
1.676
1.657
1.657
1.672
1.672
1.652
1.642
1.652
1.657
1.632
1.628
1.642
1.652
1.642
1.632
1.642
1.657
1.642
1.628
1.637
1.652
1.647
1.632
1.632
1.647
1.642
1.623
1.628
1.647
1.652
1.637
1.637
1.652
1.657
1.637
1.628
1.647
1.652
1.642
1.637
1.652
1.676
1.676
1.672
1.701
1.735
1.745
1.75
1.774
1.804
1.813
1.808
1.808
1.818
1.799
1.755
1.706
1.672
1.623
1.544
1.476
1.437
1.398
1.354
1.329
1.339
1.369
1.383
1.408
1.466
1.525
1.564
1.584
1.613
1.647
1.657
1.642
1.652
1.676
1.681
1.672
1.667
1.676
1.681
1.662
1.657
1.676
1.686
1.676
1.667
1.676
1.691
1.681
1.667
1.681
1.696
1.686
1.676
1.676
1.696
1.691
1.672
1.676
1.696
1.701
1.686
1.681
1.696
1.706
1.686
1.681
1.701
1.711
1.696
1.686
1.696
1.711
1.696
1.686
1.696
1.711
1.706
1.696
1.701
1.716
1.711
1.691
1.696
1.716
1.72
1.706
1.701
1.716
1.725
1.706
1.706
1.725
1.735
1.725
1.716
1.725
1.74
1.73
1.716
1.73
1.75
1.745
1.735
1.74
1.76
1.76
1.74
1.75
1.769
1.774
1.764
1.764
1.784
1.794
1.774
1.774
1.794
1.804
1.794
1.789
1.804
1.823
1.818
1.804
1.823
1.843
1.838
1.823
1.828
1.843
1.838
1.818
1.828
1.852
1.852
1.843
1.833
1.848
1.852
1.828
1.813
1.823
1.823
1.804
1.784
1.789
1.789
1.769
1.745
1.75
1.755
1.74
1.716
1.711
1.72
1.706
1.681
1.681
1.691
1.686
1.672
1.662
1.667
1.672
1.647
1.637
1.652
1.657
1.642
1.632
1.637
1.652
1.637
1.623
1.632
1.647
1.642
1.628
1.628
1.642
1.637
1.618
1.623
1.642
1.642
1.628
1.623
1.632
1.642
1.618
1.613
1.632
1.642
1.632
1.623
1.632
1.647
1.632
1.618
1.632
1.647
1.637
1.628
1.628
1.642
1.637
1.618
1.628
1.647
1.647
1.632
1.632
1.642
1.647
1.623
1.618
1.642
1.652
1.647
1.642
1.652
1.662
1.647
1.632
1.647
1.657
1.647
1.637
1.642
1.657
1.657
1.637
1.647
1.662
1.662
1.647
1.642
1.652
1.662
1.642
1.637
1.657
1.667
1.652
1.642
1.652
1.662
1.652
1.637
1.652
1.667
1.662
1.647
1.652
1.667
1.667
1.642
1.647
1.667
1.662
1.652
1.647
1.662
1.667
1.647
1.642
1.662
1.672
1.662
1.652
1.662
1.672
1.657
1.642
1.657
1.667
1.662
1.647
1.647
1.662
1.662
1.637
1.647
1.667
1.667
1.652
1.652
1.667
1.672
1.647
1.642
1.662
1.672
1.657
1.647
1.657
1.667
1.652
1.642
1.657
1.672
1.667
1.652
1.662
1.672
1.672
1.647
1.652
1.672
1.667
1.657
1.652
1.667
1.672
1.652
1.647
1.662
1.672
1.657
1.652
1.667
1.681
1.667
1.657
1.672
1.686
1.676
1.667
1.672
1.686
1.681
1.662
1.672
1.691
1.691
1.681
1.676
1.686
1.691
1.667
1.657
1.672
1.676
1.662
1.652
1.657
1.672
1.657
1.642
1.652
1.672
1.662
1.647
1.647
1.662
1.657
1.637
1.642
1.662
1.662
1.647
1.642
1.657
1.657
1.637
1.632
1.652
1.657
1.647
1.637
1.647
1.662
1.642
1.632
1.642
1.657
1.657
1.647
1.662
1.686
1.696
1.691
1.716
1.755
1.774
1.779
1.794
1.823
1.843
1.823
1.813
1.813
1.794
1.74
1.681
1.632
1.584
1.5
1.422
1.383
1.354
1.325
1.31
1.325
1.369
1.403
1.427
1.481
1.549
1.584
1.598
1.618
1.647
1.657
1.642
1.647
1.672
1.686
1.681
1.672
1.681
1.696
1.681
1.667
1.681
1.701
1.691
1.681
1.686
1.701
1.696
1.672
1.676
1.696
1.691
1.676
1.676
1.696
1.701
1.681
1.681
1.706
1.716
1.706
1.696
1.701
1.711
1.696
1.686
1.701
1.716
1.706
1.696
1.701
1.716
1.716
1.691
1.701
1.716
1.72
1.706
1.701
1.716
1.72
1.701
1.701
1.716
1.725
1.716
1.711
1.72
1.735
1.72
1.706
1.72
1.74
1.73
1.72
1.73
1.745
1.74
1.725
1.73
1.75
1.75
1.745
1.745
1.764
1.774
1.755
1.76
1.784
1.794
1.784
1.779
1.794
1.808
1.799
1.789
1.804
1.823
1.823
1.818
1.823
1.843
1.843
1.828
1.833
1.852
1.852
1.843
1.843
1.857
1.867
1.848
1.848
1.867
1.877
1.862
1.852
1.857
1.862
1.838
1.818
1.823
1.828
1.813
1.789
1.784
1.789
1.774
1.74
1.735
1.745
1.74
1.72
1.711
1.716
1.711
1.686
1.672
1.681
1.681
1.667
1.652
1.662
1.667
1.652
1.637
1.647
1.662
1.652
1.637
1.637
1.652
1.642
1.623
1.632
1.647
1.647
1.632
1.632
1.642
1.647
1.628
1.623
1.637
1.642
1.632
1.623
1.632
1.647
1.632
1.623
1.637
1.652
1.642
1.632
1.632
1.647
1.642
1.623
1.628
1.647
1.642
1.628
1.623
1.637
1.642
1.623
1.623
1.642
1.652
1.642
1.632
1.642
1.652
1.632
1.623
1.632
1.647
1.637
1.628
1.637
1.652
1.647
1.628
1.637
1.652
1.652
1.637
1.632
1.652
1.652
1.632
1.632
1.652
1.657
1.647
1.637
1.652
1.662
1.647
1.632
1.647
1.662
1.657
1.642
1.647
1.662
1.657
1.632
1.642
1.662
1.657
1.647
1.642
1.662
1.662
1.642
1.637
1.657
1.662
1.647
1.637
1.647
1.657
1.647
1.632
1.652
1.667
1.657
1.647
1.647
1.662
1.657
1.637
1.642
1.662
1.657
1.642
1.642
1.657
1.662
1.637
1.637
1.652
1.662
1.652
1.642
1.657
1.667
1.647
1.637
1.652
1.662
1.652
1.642
1.647
1.662
1.657
1.637
1.647
1.662
1.662
1.647
1.647
1.657
1.662
1.642
1.637
1.657
1.667
1.652
1.647
1.657
1.667
1.647
1.632
1.647
1.657
1.647
1.637
1.642
1.657
1.647
1.632
1.637
1.662
1.662
1.647
1.647
1.662
1.662
1.642
1.642
1.662
1.667
1.657
1.647
1.662
1.676
1.657
1.647
1.662
1.676
1.667
1.657
1.662
1.681
1.672
1.657
1.662
1.681
1.681
1.667
1.667
1.681
1.681
1.662
1.662
1.686
1.691
1.681
1.672
1.686
1.696
1.676
1.657
1.667
1.676
1.662
1.647
1.647
1.662
1.652
1.632
1.637
1.657
1.657
1.642
1.637
1.652
1.657
1.632
1.632
1.647
1.657
1.642
1.632
1.642
1.657
1.637
1.628
1.642
1.657
1.647
1.637
1.642
1.657
1.647
1.628
1.642
1.662
1.667
1.662
1.676
1.706
1.725
1.716
1.735
1.769
1.794
1.799
1.804
1.833
1.848
1.828
1.799
1.789
1.76
1.701
1.628
1.569
1.51
1.437
1.359
1.329
1.325
1.325
1.329
1.359
1.413
1.461
1.491
1.54
1.593
1.628
1.632
1.637
1.652
1.676
1.667
1.662
1.681
1.696
1.691
1.676
1.681
1.691
1.681
1.662
1.672
1.691
1.691
1.676
1.676
1.696
1.701
1.676
1.676
1.696
1.701
1.691
1.681
1.696
1.706
1.691
1.681
1.696
1.711
1.701
1.691
1.691
1.706
1.701
1.681
1.691
1.716
1.716
1.701
1.701
1.716
1.716
1.696
1.696
1.711
1.716
1.706
1.696
1.716
1.73
1.716
1.706
1.72
1.735
1.725
1.716
1.72
1.735
1.73
1.711
1.72
1.74
1.74
1.73
1.73
1.745
1.75
1.73
1.735
1.755
1.764
1.755
1.755
1.769
1.779
1.769
1.76
1.774
1.794
1.789
1.779
1.794
1.813
1.808
1.799
1.808
1.833
1.833
1.823
1.823
1.843
1.852
1.833
1.838
1.857
1.862
1.852
1.848
1.867
1.877
1.857
1.848
1.862
1.877
1.862
1.843
1.843
1.848
1.833
1.808
1.813
1.823
1.818
1.799
1.794
1.799
1.794
1.755
1.745
1.75
1.745
1.725
1.706
1.706
1.706
1.681
1.667
1.676
1.686
1.672
1.657
1.657
1.672
1.662
1.637
1.642
1.657
1.652
1.637
1.637
1.647
1.652
1.628
1.628
1.647
1.652
1.637
1.628
1.637
1.652
1.632
1.623
1.637
1.647
1.642
1.628
1.632
1.647
1.642
1.623
1.632
1.652
1.647
1.632
1.632
1.647
1.652
1.628
1.628
1.647
1.647
1.637
1.632
1.642
1.657
1.642
1.628
1.647
1.657
1.652
1.637
1.642
1.657
1.642
1.623
1.632
1.647
1.642
1.632
1.632
1.652
1.652
1.632
1.637
1.657
1.662
1.652
1.642
1.652
1.662
1.642
1.632
1.647
1.662
1.652
1.642
1.647
1.667
1.657
1.637
1.647
1.662
1.657
1.647
1.647
1.657
1.662
1.637
1.637
1.657
1.662
1.652
1.642
1.657
1.667
1.647
1.642
1.652
1.667
1.657
1.652
1.657
1.672
1.662
1.642
1.652
1.667
1.662
1.647
1.647
1.662
1.667
1.642
1.642
1.662
1.662
1.652
1.647
1.657
1.667
1.652
1.642
1.662
1.672
1.662
1.647
1.652
1.662
1.652
1.632
1.642
1.662
1.662
1.652
1.657
1.672
1.672
1.652
1.652
1.672
1.672
1.662
1.652
1.662
1.672
1.652
1.642
1.657
1.672
1.662
1.647
1.657
1.672
1.667
1.647
1.657
1.676
1.667
1.652
1.652
1.662
1.662
1.642
1.642
1.667
1.667
1.657
1.652
1.662
1.676
1.652
1.642
1.657
1.672
1.662
1.657
1.662
1.676
1.672
1.652
1.662
1.676
1.676
1.662
1.657
1.676
1.676
1.657
1.657
1.681
1.686
1.676
1.672
1.681
1.691
1.676
1.662
1.676
1.691
1.681
1.672
1.681
1.701
1.696
1.681
1.691
1.706
1.701
1.686
1.681
1.691
1.686
1.657
1.657
1.672
1.672
1.662
1.652
1.662
1.672
1.652
1.642
1.662
1.672
1.662
1.652
1.657
1.667
1.657
1.642
1.652
1.667
1.667
1.652
1.652
1.667
1.667
1.642
1.647
1.662
1.667
1.652
1.647
1.662
1.672
1.657
1.657
1.681
1.706
1.711
1.716
1.73
1.764
1.774
1.774
1.799
1.838
1.843
1.838
1.833
1.833
1.804
1.74
1.686
1.647
1.588
1.51
1.442
1.403
1.364
1.329
1.32
1.349
1.388
1.417
1.457
1.51
1.569
1.598
1.608
1.632
1.662
1.667
1.662
1.667
1.686
1.696
1.676
1.681
1.696
1.701
1.686
1.681
1.696
1.711
1.696
1.686
1.706
1.716
1.701
1.691
1.696
1.711
1.701
1.681
1.696
1.716
1.711
1.701
1.701
1.716
1.72
1.696
1.696
1.716
1.72
1.706
1.696
1.711
1.72
1.706
1.696
1.72
1.73
1.72
1.711
1.716
1.73
1.72
1.701
1.711
1.73
1.73
1.716
1.72
1.74
1.74
1.72
1.725
1.745
1.745
1.73
1.725
1.735
1.745
1.73
1.725
1.745
1.76
1.755
1.745
1.755
1.774
1.764
1.745
1.76
1.779
1.779
1.769
1.774
1.789
1.794
1.774
1.779
1.804
1.808
1.804
1.799
1.818
1.833
1.818
1.813
1.833
1.848
1.843
1.833
1.843
1.862
1.852
1.838
1.848
1.867
1.867
1.852
1.857
1.867
1.867
1.848
1.848
1.867
1.867
1.852
1.843
1.848
1.848
1.818
1.799
1.804
1.804
1.789
1.764
1.764
1.769
1.745
1.72
1.725
1.735
1.725
1.701
1.696
1.706
1.701
1.672
1.667
1.676
1.672
1.652
1.642
1.652
1.662
1.642
1.632
1.652
1.662
1.652
1.642
1.652
1.662
1.652
1.632
1.642
1.652
1.647
1.632
1.637
1.652
1.647
1.628
1.632
1.647
1.652
1.637
1.632
1.647
1.657
1.642
1.637
1.652
1.662
1.652
1.642
1.647
1.662
1.647
1.628
1.637
1.657
1.652
1.637
1.632
1.647
1.652
1.632
1.637
1.662
1.667
1.657
1.647
1.657
1.662
1.637
1.628
1.647
1.662
1.652
1.647
1.657
1.672
1.657
1.637
1.647
1.662
1.657
1.647
1.647
1.667
1.667
1.647
1.652
1.676
1.676
1.667
1.657
1.667
1.672
1.652
1.647
1.672
1.686
1.676
1.667
1.676
1.691
1.672
1.652
1.657
1.672
1.662
1.647
1.652
1.672
1.672
1.652
1.657
1.672
1.676
1.662
1.657
1.667
1.676
1.657
1.652
1.667
1.676
1.662
1.652
1.657
1.672
1.662
1.647
1.657
1.676
1.672
1.657
1.657
1.672
1.672
1.647
1.652
1.672
1.676
1.662
1.657
1.667
1.676
1.657
1.647
1.667
1.676
1.667
1.657
1.662
1.676
1.667
1.652
1.662
1.681
1.667
1.657
1.667
1.686
1.686
1.667
1.667
1.686
1.691
1.676
1.667
1.676
1.681
1.662
1.652
1.672
1.686
1.681
1.672
1.681
1.696
1.681
1.667
1.686
1.701
1.701
1.691
1.691
1.706
1.701
1.672
1.672
1.686
1.681
1.662
1.657
1.667
1.672
1.652
1.647
1.662
1.676
1.662
1.652
1.662
1.676
1.662
1.647
1.657
1.672
1.667
1.652
1.652
1.672
1.672
1.652
1.652
1.676
1.676
1.667
1.657
1.667
1.672
1.647
1.642
1.657
1.672
1.672
1.667
1.686
1.711
1.711
1.706
1.73
1.76
1.774
1.779
1.799
1.833
1.843
1.818
1.808
1.804
1.764
1.706
1.642
1.598
1.544
1.466
1.408
1.383
1.369
1.354
1.354
1.383
1.427
1.457
1.486
1.544
1.598
1.628
1.637
1.652
1.681
1.686
1.667
1.676
1.701
1.706
1.691
1.686
1.701
1.711
1.691
1.686
1.706
1.716
1.706
1.691
1.701
1.716
1.701
1.686
1.701
1.72
1.716
1.706
1.711
1.72
1.72
1.696
1.701
1.72
1.725
1.711
1.706
1.72
1.73
1.711
1.706
1.725
1.735
1.725
1.716
1.72
1.735
1.725
1.706
1.72
1.735
1.735
1.72
1.725
1.74
1.74
1.716
1.72
1.74
1.745
1.73
1.725
1.74
1.75
1.735
1.73
1.75
1.76
1.75
1.74
1.75
1.769
1.76
1.745
1.76
1.779
1.774
1.764
1.769
1.789
1.794
1.774
1.779
1.804
1.808
1.799
1.804
1.818
1.833
1.813
1.813
1.833
1.848
1.838
1.833
1.843
1.857
1.848
1.838
1.852
1.872
1.872
1.862
1.862
1.882
1.882
1.862
1.862
1.882
1.887
1.877
1.867
1.877
1.877
1.852
1.833
1.843
1.838
1.818
1.799
1.794
1.799
1.774
1.75
1.75
1.76
1.74
1.716
1.706
1.711
1.706
1.676
1.681
1.696
1.696
1.676
1.672
1.681
1.681
1.657
1.642
1.657
1.667
1.657
1.642
1.652
1.662
1.647
1.628
1.637
1.652
1.647
1.637
1.637
1.657
1.657
1.637
1.642
1.657
1.652
1.637
1.632
1.647
1.652
1.637
1.632
1.652
1.662
1.647
1.637
1.642
1.657
1.642
1.628
1.642
1.657
1.652
1.642
1.642
1.652
1.652
1.628
1.632
1.652
1.652
1.637
1.637
1.652
1.662
1.642
1.637
1.652
1.662
1.652
1.647
1.657
1.667
1.652
1.637
1.652
1.672
1.662
1.652
1.652
1.667
1.667
1.642
1.647
1.667
1.667
1.652
1.652
1.667
1.676
1.657
1.652
1.672
1.681
1.672
1.662
1.667
1.681
1.667
1.647
1.662
1.676
1.667
1.657
1.657
1.672
1.672
1.647
1.652
1.672
1.676
1.662
1.657
1.667
1.672
1.652
1.647
1.667
1.676
1.662
1.647
1.657
1.672
1.662
1.647
1.662
1.672
1.667
1.657
1.657
1.672
1.667
1.642
1.642
1.667
1.667
1.657
1.657
1.667
1.676
1.652
1.642
1.662
1.672
1.657
1.647
1.652
1.672
1.662
1.647
1.662
1.676
1.672
1.657
1.662
1.676
1.676
1.657
1.657
1.676
1.676
1.662
1.662
1.676
1.686
1.667
1.662
1.676
1.686
1.676
1.662
1.672
1.686
1.672
1.657
1.672
1.691
1.686
1.672
1.676
1.691
1.691
1.667
1.676
1.696
1.701
1.686
1.681
1.691
1.696
1.672
1.662
1.672
1.681
1.667
1.652
1.657
1.667
1.657
1.637
1.652
1.667
1.662
1.647
1.652
1.667
1.662
1.642
1.642
1.662
1.662
1.647
1.642
1.657
1.667
1.647
1.642
1.662
1.672
1.657
1.647
1.657
1.672
1.657
1.642
1.657
1.681
1.681
1.681
1.691
1.72
1.73
1.725
1.75
1.784
1.804
1.804
1.813
1.838
1.843
1.808
1.774
1.755
1.72
1.657
1.588
1.54
1.496
1.427
1.373
1.359
1.369
1.373
1.378
1.413
1.466
1.505
1.52
1.564
1.613
1.637
1.637
1.642
1.667
1.686
1.672
1.676
1.701
1.711
1.696
1.681
1.691
1.706
1.691
1.676
1.691
1.711
1.706
1.691
1.696
1.711
1.706
1.686
1.691
1.711
1.711
1.701
1.696
1.706
1.716
1.696
1.691
1.711
1.716
1.706
1.696
1.706
1.72
1.706
1.696
1.706
1.725
1.716
1.706
1.706
1.72
1.716
1.696
1.701
1.72
1.725
1.716
1.716
1.73
1.735
1.716
1.711
1.73
1.74
1.73
1.72
1.73
1.74
1.73
1.716
1.73
1.75
1.745
1.735
1.74
1.76
1.76
1.74
1.745
1.764
1.769
1.76
1.76
1.779
1.789
1.769
1.769
1.789
1.799
1.794
1.789
1.804
1.818
1.813
1.804
1.823
1.843
1.843
1.833
1.838
1.852
1.852
1.833
1.838
1.862
1.862
1.852
1.852
1.867
1.872
1.852
1.843
1.862
1.867
1.852
1.838
1.838
1.848
1.828
1.804
1.813
1.818
1.808
1.789
1.779
1.784
1.764
1.735
1.73
1.74
1.73
1.711
1.696
1.701
1.701
1.676
1.662
1.676
1.676
1.662
1.652
1.657
1.672
1.652
1.637
1.647
1.662
1.657
1.642
1.647
1.662
1.657
1.637
1.642
1.657
1.657
1.647
1.637
1.652
1.657
1.632
1.628
1.642
1.652
1.642
1.637
1.642
1.657
1.642
1.628
1.637
1.652
1.642
1.628
1.632
1.647
1.647
1.628
1.632
1.657
1.657
1.642
1.637
1.647
1.657
1.632
1.628
1.647
1.657
1.647
1.637
1.647
1.662
1.647
1.628
1.642
1.657
1.652
1.637
1.642
1.657
1.657
1.637
1.647
1.672
1.667
1.657
1.652
1.667
1.672
1.647
1.642
1.662
1.672
1.662
1.652
1.662
1.672
1.657
1.642
1.657
1.672
1.667
1.657
1.662
1.676
1.672
1.647
1.657
1.672
1.672
1.657
1.652
1.667
1.672
1.652
1.652
1.672
1.681
1.667
1.662
1.672
1.681
1.667
1.647
1.662
1.676
1.667
1.657
1.657
1.676
1.672
1.647
1.652
1.667
1.667
1.652
1.647
1.667
1.676
1.652
1.652
1.667
1.676
1.662
1.652
1.657
1.672
1.657
1.642
1.657
1.672
1.667
1.652
1.657
1.672
1.672
1.647
1.657
1.676
1.672
1.657
1.657
1.667
1.672
1.647
1.642
1.662
1.672
1.662
1.652
1.662
1.676
1.657
1.642
1.657
1.672
1.667
1.652
1.657
1.672
1.667
1.647
1.652
1.672
1.667
1.652
1.647
1.667
1.672
1.652
1.647
1.672
1.681
1.672
1.662
1.676
1.686
1.672
1.657
1.672
1.686
1.676
1.662
1.662
1.676
1.672
1.652
1.662
1.681
1.681
1.672
1.672
1.686
1.696
1.672
1.662
1.681
1.691
1.676
1.672
1.681
1.696
1.686
1.676
1.696
1.711
1.706
1.691
1.691
1.701
1.691
1.662
1.662
1.676
1.676
1.657
1.657
1.672
1.672
1.652
1.647
1.667
1.672
1.662
1.652
1.657
1.672
1.657
1.642
1.657
1.667
1.662
1.652
1.657
1.672
1.667
1.647
1.652
1.672
1.667
1.657
1.647
1.657
1.662
1.642
1.642
1.672
1.691
1.691
1.691
1.716
1.745
1.745
1.75
1.779
1.813
1.818
1.823
1.838
1.852
1.838
1.789
1.755
1.725
1.672
1.598
1.53
1.481
1.432
1.369
1.339
1.349
1.364
1.378
1.403
1.457
1.515
1.544
1.569
1.608
1.647
1.647
1.647
1.657
1.681
1.686
1.667
1.681
1.701
1.701
1.686
1.681
1.691
1.696
1.676
1.676
1.696
1.706
1.696
1.686
1.696
1.711
1.696
1.681
1.696
1.711
1.706
1.696
1.701
1.716
1.706
1.686
1.691
1.711
1.706
1.696
1.691
1.711
1.716
1.701
1.701
1.72
1.725
1.711
1.701
1.711
1.72
1.706
1.691
1.706
1.72
1.716
1.706
1.711
1.725
1.72
1.701
1.711
1.73
1.735
1.72
1.72
1.735
1.74
1.716
1.716
1.73
1.74
1.735
1.725
1.74
1.755
1.745
1.73
1.75
1.764
1.76
1.75
1.755
1.774
1.774
1.76
1.769
1.789
1.794
1.779
1.779
1.799
1.808
1.794
1.799
1.823
1.838
1.833
1.828
1.843
1.852
1.838
1.828
1.843
1.857
1.852
1.843
1.848
1.862
1.857
1.838
1.843
1.862
1.857
1.843
1.838
1.848
1.852
1.828
1.818
1.828
1.823
1.804
1.784
1.779
1.784
1.76
1.735
1.735
1.74
1.725
1.706
1.701
1.706
1.696
1.667
1.672
1.681
1.676
1.662
1.657
1.672
1.672
1.647
1.637
1.652
1.662
1.647
1.637
1.642
1.652
1.637
1.628
1.642
1.657
1.652
1.637
1.637
1.652
1.642
1.628
1.632
1.652
1.647
1.637
1.632
1.647
1.652
1.632
1.623
1.642
1.642
1.632
1.623
1.637
1.652
1.642
1.632
1.647
1.657
1.652
1.637
1.642
1.652
1.642
1.623
1.628
1.647
1.647
1.632
1.628
1.642
1.647
1.628
1.628
1.652
1.662
1.652
1.642
1.652
1.662
1.647
1.632
1.647
1.662
1.657
1.642
1.647
1.667
1.657
1.637
1.642
1.657
1.657
1.642
1.642
1.657
1.662
1.642
1.637
1.657
1.667
1.652
1.642
1.652
1.662
1.647
1.637
1.652
1.667
1.662
1.652
1.652
1.667
1.657
1.637
1.642
1.662
1.662
1.652
1.652
1.667
1.672
1.647
1.647
1.662
1.667
1.657
1.647
1.657
1.672
1.657
1.642
1.652
1.667
1.657
1.642
1.647
1.662
1.662
1.642
1.647
1.667
1.667
1.652
1.647
1.662
1.667
1.647
1.642
1.657
1.667
1.657
1.652
1.662
1.667
1.652
1.637
1.652
1.662
1.652
1.637
1.642
1.657
1.652
1.637
1.647
1.667
1.662
1.647
1.642
1.657
1.662
1.642
1.637
1.657
1.667
1.652
1.647
1.652
1.662
1.642
1.632
1.647
1.662
1.657
1.647
1.652
1.672
1.662
1.642
1.647
1.667
1.662
1.652
1.647
1.662
1.662
1.642
1.637
1.657
1.662
1.652
1.647
1.657
1.667
1.652
1.642
1.657
1.672
1.662
1.647
1.652
1.667
1.662
1.642
1.652
1.672
1.672
1.662
1.662
1.676
1.676
1.652
1.647
1.662
1.667
1.652
1.647
1.662
1.676
1.667
1.657
1.676
1.691
1.681
1.672
1.672
1.691
1.686
1.667
1.676
1.701
1.701
1.691
1.686
1.701
1.701
1.676
1.667
1.681
1.681
1.667
1.657
1.662
1.676
1.662
1.647
1.657
1.672
1.662
1.647
1.647
1.662
1.652
1.632
1.642
1.662
1.662
1.647
1.642
1.657
1.657
1.632
1.632
1.652
1.662
1.652
1.647
1.657
1.672
1.657
1.642
1.657
1.667
1.667
1.662
1.681
1.711
1.72
1.716
1.745
1.784
1.799
1.804
1.813
1.838
1.848
1.823
1.808
1.799
1.774
1.716
1.647
1.593
1.535
1.457
1.388
1.359
1.349
1.339
1.339
1.369
1.427
1.466
1.496
1.544
1.593
1.618
1.618
1.628
1.647
1.662
1.642
1.647
1.676
1.691
1.681
1.676
1.686
1.696
1.681
1.667
1.681
1.696
1.686
1.676
1.681
1.696
1.691
1.672
1.676
1.696
1.696
1.686
1.686
1.701
1.706
1.681
1.681
1.696
1.706
1.691
1.681
1.691
1.701
1.686
1.676
1.701
1.716
1.711
1.696
1.701
1.716
1.706
1.686
1.696
1.711
1.711
1.701
1.706
1.72
1.72
1.701
1.701
1.716
1.72
1.706
1.696
1.711
1.73
1.716
1.706
1.725
1.745
1.74
1.73
1.74
1.755
1.745
1.725
1.74
1.76
1.76
1.745
1.745
1.76
1.769
1.75
1.75
1.769
1.779
1.774
1.769
1.784
1.804
1.794
1.784
1.804
1.823
1.818
1.808
1.818
1.838
1.833
1.813
1.828
1.852
1.852
1.843
1.843
1.857
1.862
1.838
1.838
1.857
1.862
1.852
1.843
1.852
1.862
1.843
1.823
1.833
1.838
1.818
1.799
1.794
1.804
1.789
1.76
1.755
1.764
1.76
1.735
1.72
1.72
1.716
1.681
1.676
1.691
1.691
1.676
1.662
1.672
1.676
1.657
1.642
1.652
1.662
1.652
1.637
1.642
1.652
1.647
1.623
1.628
1.647
1.647
1.632
1.632
1.647
1.652
1.628
1.628
1.647
1.652
1.637
1.628
1.637
1.642
1.628
1.618
1.632
1.647
1.642
1.628
1.632
1.652
1.642
1.623
1.632
1.652
1.647
1.632
1.628
1.642
1.647
1.628
1.632
1.652
1.657
1.642
1.632
1.642
1.657
1.637
1.628
1.642
1.657
1.652
1.642
1.647
1.662
1.652
1.628
1.637
1.652
1.652
1.642
1.642
1.657
1.662
1.637
1.637
1.657
1.662
1.647
1.642
1.652
1.662
1.647
1.632
1.647
1.657
1.647
1.637
1.637
1.657
1.652
1.637
1.647
1.672
1.672
1.652
1.647
1.657
1.662
1.642
1.637
1.657
1.667
1.657
1.652
1.662
1.672
1.652
1.637
1.652
1.662
1.652
1.642
1.647
1.662
1.657
1.637
1.647
1.667
1.667
1.652
1.647
1.662
1.662
1.637
1.632
1.652
1.662
1.652
1.642
1.652
1.667
1.652
1.637
1.652
1.667
1.657
1.642
1.642
1.657
1.652
1.637
1.652
1.672
1.667
1.657
1.657
1.667
1.667
1.642
1.637
1.652
1.662
1.652
1.642
1.657
1.667
1.652
1.637
1.652
1.662
1.652
1.637
1.642
1.662
1.657
1.637
1.647
1.667
1.667
1.652
1.647
1.662
1.662
1.642
1.642
1.662
1.667
1.657
1.647
1.657
1.672
1.647
1.637
1.652
1.667
1.662
1.652
1.657
1.672
1.662
1.642
1.647
1.667
1.662
1.647
1.647
1.662
1.667
1.647
1.647
1.667
1.672
1.657
1.652
1.667
1.676
1.657
1.647
1.662
1.672
1.667
1.652
1.657
1.676
1.672
1.652
1.662
1.686
1.681
1.672
1.667
1.681
1.686
1.662
1.662
1.681
1.686
1.681
1.676
1.691
1.701
1.686
1.672
1.686
1.696
1.681
1.662
1.657
1.667
1.657
1.637
1.642
1.662
1.662
1.652
1.652
1.667
1.672
1.652
1.652
1.667
1.672
1.652
1.642
1.652
1.662
1.647
1.637
1.652
1.667
1.657
1.647
1.652
1.667
1.657
1.632
1.642
1.662
1.662
1.652
1.662
1.681
1.701
1.691
1.701
1.74
1.764
1.769
1.779
1.808
1.838
1.833
1.828
1.838
1.838
1.799
1.745
1.701
1.662
1.588
1.5
1.447
1.403
1.359
1.32
1.31
1.339
1.369
1.388
1.437
1.505
1.559
1.588
1.608
1.637
1.667
1.657
1.652
1.672
1.691
1.686
1.676
1.676
1.691
1.681
1.662
1.672
1.696
1.696
1.686
1.686
1.701
1.706
1.681
1.676
1.696
1.706
1.691
1.686
1.696
1.711
1.691
1.681
1.701
1.716
1.701
1.691
1.696
1.711
1.706
1.691
1.701
1.716
1.716
1.706
1.706
1.72
1.72
1.701
1.701
1.72
1.725
1.711
1.706
1.716
1.73
1.711
1.696
1.711
1.725
1.72
1.716
1.72
1.74
1.73
1.711
1.72
1.74
1.735
1.72
1.72
1.735
1.74
1.72
1.725
1.745
1.755
1.745
1.74
1.755
1.769
1.755
1.745
1.76
1.779
1.774
1.769
1.779
1.799
1.794
1.774
1.789
1.813
1.813
1.808
1.813
1.838
1.848
1.833
1.833
1.857
1.862
1.852
1.843
1.852
1.867
1.848
1.843
1.857
1.872
1.867
1.852
1.857
1.867
1.857
1.833
1.838
1.852
1.843
1.823
1.818
1.828
1.818
1.789
1.774
1.779
1.769
1.745
1.725
1.73
1.73
1.706
1.691
1.701
1.706
1.691
1.672
1.667
1.681
1.667
1.642
1.647
1.662
1.662
1.647
1.642
1.657
1.657
1.632
1.628
1.647
1.647
1.637
1.632
1.642
1.652
1.637
1.623
1.642
1.652
1.642
1.632
1.637
1.652
1.642
1.618
1.632
1.647
1.647
1.628
1.628
1.642
1.647
1.628
1.628
1.642
1.652
1.637
1.628
1.637
1.652
1.632
1.623
1.642
1.647
1.637
1.628
1.632
1.652
1.637
1.623
1.632
1.652
1.652
1.642
1.642
1.657
1.662
1.642
1.637
1.662
1.662
1.652
1.642
1.647
1.662
1.642
1.632
1.652
1.667
1.662
1.652
1.657
1.672
1.662
1.642
1.647
1.662
1.657
1.642
1.647
1.662
1.667
1.647
1.647
1.667
1.672
1.657
1.647
1.662
1.667
1.652
1.642
1.657
1.672
1.662
1.652
1.657
1.672
1.667
1.642
1.652
1.667
1.662
1.652
1.652
1.667
1.672
1.647
1.647
1.667
1.672
1.657
1.647
1.657
1.672
1.652
1.642
1.657
1.667
1.657
1.647
1.652
1.672
1.662
1.647
1.662
1.681
1.676
1.662
1.657
1.667
1.667
1.642
1.642
1.662
1.672
1.657
1.652
1.662
1.672
1.652
1.642
1.657
1.672
1.662
1.647
1.657
1.672
1.667
1.647
1.657
1.672
1.672
1.652
1.652
1.667
1.667
1.642
1.642
1.667
1.672
1.667
1.657
1.672
1.686
1.667
1.652
1.667
1.676
1.667
1.652
1.662
1.676
1.667
1.647
1.657
1.676
1.667
1.652
1.652
1.667
1.672
1.647
1.647
1.672
1.676
1.667
1.657
1.672
1.681
1.662
1.652
1.667
1.681
1.672
1.657
1.662
1.681
1.672
1.652
1.662
1.686
1.681
1.667
1.667
1.681
1.681
1.657
1.657
1.676
1.681
1.672
1.672
1.686
1.696
1.676
1.667
1.686
1.701
1.691
1.676
1.681
1.696
1.691
1.672
1.686
1.706
1.706
1.691
1.691
1.706
1.701
1.676
1.672
1.686
1.686
1.667
1.657
1.672
1.681
1.662
1.647
1.667
1.676
1.667
1.652
1.662
1.676
1.667
1.647
1.657
1.676
1.672
1.657
1.657
1.672
1.676
1.652
1.652
1.672
1.681
1.667
1.662
1.672
1.681
1.662
1.652
1.672
1.691
1.691
1.691
1.711
1.74
1.745
1.75
1.779
1.818
1.833
1.833
1.843
1.857
1.848
1.799
1.764
1.735
1.686
1.608
1.54
1.486
1.442
1.378
1.339
1.344
1.364
1.373
1.398
1.447
1.51
1.549
1.569
1.613
1.657
1.667
1.662
1.667
1.686
1.691
1.676
1.681
1.706
1.711
1.701
1.696
1.706
1.716
1.696
1.686
1.701
1.711
1.701
1.696
1.706
1.725
1.72
1.706
1.716
1.73
1.72
1.706
1.701
1.716
1.716
1.696
1.701
1.725
1.73
1.72
1.716
1.725
1.73
1.711
1.701
1.716
1.73
1.72
1.711
1.716
1.73
1.72
1.706
1.716
1.735
1.735
1.725
1.725
1.745
1.745
1.725
1.725
1.745
1.75
1.74
1.735
1.75
1.76
1.74
1.73
1.75
1.764
1.755
1.745
1.755
1.774
1.764
1.745
1.76
1.779
1.774
1.764
1.769
1.789
1.789
1.774
1.774
1.794
1.804
1.794
1.794
1.813
1.828
1.813
1.813
1.833
1.848
1.843
1.833
1.843
1.857
1.852
1.838
1.852
1.872
1.872
1.857
1.862
1.877
1.877
1.857
1.857
1.877
1.882
1.867
1.857
1.867
1.872
1.843
1.828
1.838
1.838
1.818
1.799
1.799
1.804
1.784
1.755
1.76
1.764
1.75
1.73
1.72
1.725
1.72
1.691
1.686
1.696
1.696
1.676
1.667
1.676
1.681
1.662
1.647
1.662
1.672
1.667
1.652
1.657
1.672
1.657
1.637
1.647
1.662
1.662
1.647
1.647
1.662
1.662
1.642
1.642
1.662
1.662
1.647
1.642
1.647
1.657
1.637
1.628
1.647
1.657
1.647
1.637
1.647
1.662
1.652
1.632
1.642
1.657
1.652
1.637
1.642
1.657
1.662
1.642
1.642
1.667
1.667
1.652
1.642
1.657
1.667
1.642
1.632
1.652
1.667
1.662
1.652
1.657
1.672
1.667
1.647
1.657
1.672
1.667
1.652
1.652
1.667
1.667
1.642
1.647
1.667
1.672
1.662
1.652
1.662
1.672
1.647
1.642
1.662
1.676
1.672
1.662
1.672
1.691
1.681
1.662
1.667
1.681
1.676
1.662
1.662
1.681
1.681
1.657
1.662
1.676
1.681
1.667
1.657
1.672
1.681
1.662
1.652
1.672
1.681
1.672
1.662
1.667
1.676
1.662
1.647
1.657
1.676
1.672
1.662
1.662
1.676
1.676
1.652
1.652
1.672
1.676
1.667
1.662
1.676
1.686
1.667
1.657
1.676
1.686
1.672
1.657
1.662
1.676
1.667
1.647
1.657
1.676
1.672
1.662
1.662
1.676
1.676
1.652
1.657
1.676
1.676
1.662
1.652
1.672
1.686
1.667
1.662
1.676
1.691
1.681
1.667
1.672
1.686
1.672
1.657
1.672
1.686
1.686
1.676
1.681
1.691
1.696
1.667
1.672
1.686
1.696
1.681
1.681
1.696
1.711
1.691
1.681
1.701
1.711
1.696
1.681
1.681
1.691
1.676
1.652
1.657
1.672
1.667
1.652
1.652
1.667
1.667
1.647
1.647
1.667
1.667
1.657
1.647
1.657
1.667
1.647
1.642
1.657
1.672
1.662
1.652
1.657
1.676
1.662
1.642
1.652
1.672
1.667
1.652
1.652
1.667
1.672
1.652
1.667
1.696
1.711
1.711
1.716
1.745
1.769
1.764
1.774
1.804
1.828
1.828
1.813
1.804
1.789
1.74
1.676
1.637
1.598
1.535
1.466
1.413
1.393
1.369
1.339
1.354
1.393
1.432
1.457
1.491
1.549
1.603
1.618
1.632
1.667
1.686
1.681
1.676
1.691
1.706
1.696
1.676
1.686
1.701
1.701
1.691
1.691
1.711
1.711
1.691
1.696
1.711
1.716
1.701
1.696
1.711
1.72
1.701
1.691
1.711
1.72
1.706
1.696
1.706
1.72
1.711
1.696
1.706
1.725
1.72
1.706
1.706
1.72
1.72
1.701
1.706
1.725
1.73
1.72
1.716
1.725
1.74
1.716
1.706
1.725
1.735
1.725
1.72
1.73
1.745
1.735
1.716
1.73
1.745
1.74
1.73
1.735
1.755
1.755
1.735
1.735
1.76
1.764
1.755
1.75
1.764
1.779
1.764
1.755
1.779
1.789
1.784
1.774
1.779
1.799
1.794
1.779
1.799
1.818
1.813
1.808
1.813
1.828
1.833
1.813
1.818
1.843
1.848
1.838
1.833
1.852
1.867
1.848
1.843
1.862
1.877
1.867
1.857
1.867
1.877
1.867
1.848
1.857
1.872
1.862
1.843
1.838
1.848
1.843
1.808
1.808
1.818
1.808
1.784
1.769
1.769
1.764
1.735
1.716
1.725
1.73
1.711
1.696
1.696
1.701
1.681
1.657
1.667
1.676
1.667
1.652
1.652
1.667
1.667
1.642
1.647
1.662
1.662
1.647
1.637
1.647
1.657
1.632
1.628
1.647
1.657
1.647
1.637
1.642
1.657
1.637
1.623
1.637
1.652
1.647
1.632
1.632
1.647
1.647
1.623
1.628
1.647
1.647
1.637
1.632
1.647
1.657
1.637
1.628
1.642
1.652
1.637
1.628
1.632
1.652
1.637
1.623
1.637
1.657
1.652
1.637
1.637
1.652
1.652
1.628
1.632
1.652
1.657
1.642
1.637
1.652
1.667
1.647
1.642
1.657
1.672
1.662
1.652
1.657
1.672
1.657
1.642
1.652
1.667
1.662
1.652
1.652
1.672
1.672
1.647
1.657
1.676
1.676
1.662
1.657
1.667
1.676
1.652
1.647
1.662
1.672
1.667
1.657
1.672
1.691
1.686
1.676
1.701
1.735
1.745
1.75
1.774
1.808
1.823
1.813
1.828
1.848
1.843
1.808
1.769
1.735
1.686
1.598
1.515
1.461
1.398
1.31
1.227
1.178
1.144
1.1
1.065
1.08
1.109
1.134
1.163
1.212
1.281
1.329
1.359
1.413
1.476
1.52
1.549
1.579
1.623
1.657
1.657
1.667
1.696
1.711
1.706
1.701
1.716
1.74
1.73
1.716
1.735
1.76
1.75
1.74
1.735
1.75
1.75
1.725
1.73
1.75
1.755
1.745
1.745
1.764
1.774
1.755
1.745
1.76
1.769
1.76
1.745
1.755
1.774
1.764
1.75
1.769
1.789
1.784
1.769
1.769
1.784
1.779
1.755
1.755
1.774
1.769
1.755
1.75
1.76
1.769
1.75
1.74
1.764
1.774
1.769
1.76
1.769
1.779
1.774
1.76
1.774
1.794
1.794
1.789
1.794
1.818
1.818
1.799
1.808
1.828
1.833
1.828
1.823
1.843
1.857
1.843
1.848
1.872
1.891
1.887
1.887
1.906
1.921
1.916
1.901
1.916
1.935
1.931
1.926
1.931
1.95
1.95
1.931
1.935
1.955
1.96
1.94
1.931
1.94
1.94
1.916
1.896
1.906
1.901
1.882
1.862
1.857
1.862
1.833
1.804
1.804
1.804
1.784
1.76
1.745
1.75
1.74
1.706
1.701
1.711
1.701
1.681
1.667
1.676
1.681
1.657
1.642
1.657
1.662
1.647
1.632
1.637
1.647
1.628
1.613
1.623
1.637
1.628
1.613
1.608
1.628
1.623
1.603
1.608
1.632
1.637
1.628
1.623
1.637
1.642
1.618
1.608
1.628
1.632
1.623
1.618
1.628
1.642
1.628
1.613
1.623
1.637
1.632
1.618
1.623
1.637
1.632
1.613
1.618
1.637
1.637
1.628
1.623
1.637
1.647
1.628
1.623
1.642
1.652
1.637
1.628
1.637
1.647
1.637
1.623
1.637
1.657
1.652
1.642
1.642
1.657
1.652
1.632
1.637
1.652
1.652
1.642
1.637
1.652
1.657
1.642
1.637
1.657
1.667
1.657
1.647
1.652
1.662
1.647
1.628
1.642
1.657
1.652
1.637
1.642
1.657
1.657
1.637
1.642
1.657
1.662
1.647
1.642
1.657
1.662
1.637
1.632
1.647
1.657
1.647
1.637
1.647
1.662
1.647
1.632
1.642
1.657
1.652
1.637
1.642
1.657
1.652
1.632
1.632
1.652
1.657
1.642
1.637
1.652
1.657
1.637
1.632
1.652
1.657
1.647
1.632
1.642
1.657
1.642
1.623
1.637
1.652
1.647
1.637
1.637
1.652
1.647
1.628
1.632
1.652
1.657
1.642
1.637
1.652
1.662
1.642
1.632
1.652
1.657
1.647
1.637
1.647
1.657
1.642
1.628
1.642
1.657
1.652
1.642
1.642
1.657
1.657
1.637
1.642
1.662
1.657
1.647
1.637
1.652
1.662
1.637
1.632
1.652
1.662
1.652
1.642
1.652
1.667
1.652
1.637
1.647
1.662
1.657
1.642
1.642
1.662
1.657
1.632
1.637
1.657
1.657
1.647
1.642
1.662
1.667
1.647
1.642
1.662
1.672
1.657
1.647
1.657
1.667
1.657
1.642
1.652
1.667
1.662
1.647
1.647
1.667
1.662
1.642
1.647
1.667
1.672
1.662
1.657
1.667
1.672
1.652
1.647
1.667
1.676
1.662
1.652
1.662
1.672
1.657
1.642
1.657
1.672
1.667
1.652
1.657
1.676
1.672
1.647
1.647
1.667
1.672
1.657
1.652
1.667
1.676
1.652
1.647
1.667
1.676
1.662
1.652
1.662
1.676
1.662
1.642
1.657
1.672
1.667
1.652
1.652
1.667
1.667
1.647
1.652
1.672
1.672
1.662
1.657
1.672
1.681
1.662
1.657
1.676
1.681
1.672
1.657
1.667
1.676
1.662
1.642
1.657
1.672
1.667
1.657
1.662
1.676
1.672
1.652
1.657
1.676
1.672
1.662
1.657
1.676
1.686
1.667
1.662
1.676
1.681
1.667
1.652
1.662
1.676
1.662
1.652
1.667
1.686
1.681
1.667
1.672
1.681
1.676
1.647
1.652
1.672
1.672
1.662
1.657
1.672
1.681
1.662
1.662
1.681
1.691
1.681
1.672
1.681
1.691
1.676
1.662
1.672
1.686
1.681
1.672
1.681
1.696
1.696
1.672
1.681
1.701
1.701
1.691
1.681
1.696
1.701
1.681
1.676
1.701
1.711
1.701
1.691
1.701
1.711
1.691
1.672
1.681
1.691
1.681
1.672
1.672
1.686
1.681
1.657
1.662
1.676
1.676
1.662
1.657
1.672
1.676
1.657
1.652
1.672
1.681
1.667
1.657
1.667
1.676
1.662
1.642
1.662
1.676
1.667
1.657
1.662
1.681
1.681
1.672
1.686
1.716
1.73
1.73
1.74
1.769
1.799
1.794
1.804
1.838
1.852
1.848
1.828
1.818
1.799
1.745
1.681
1.642
1.598
1.535
1.466
1.422
1.408
1.388
1.369
1.388
1.432
1.471
1.496
1.535
1.588
1.628
1.628
1.642
1.667
1.686
1.681
1.676
1.691
1.706
1.691
1.676
1.686
1.701
1.691
1.676
1.681
1.701
1.701
1.681
1.686
1.706
1.706
1.691
1.686
1.701
1.706
1.686
1.681
1.706
1.716
1.711
1.701
1.711
1.72
1.706
1.691
1.706
1.72
1.711
1.701
1.706
1.725
1.72
1.701
1.706
1.725
1.73
1.716
1.711
1.725
1.725
1.706
1.701
1.716
1.725
1.716
1.706
1.72
1.735
1.72
1.711
1.72
1.735
1.73
1.72
1.72
1.74
1.735
1.716
1.725
1.745
1.745
1.73
1.73
1.745
1.755
1.735
1.73
1.75
1.764
1.76
1.755
1.769
1.784
1.774
1.76
1.779
1.794
1.789
1.779
1.784
1.799
1.799
1.779
1.789
1.813
1.813
1.804
1.804
1.823
1.838
1.818
1.813
1.833
1.838
1.828
1.813
1.823
1.838
1.823
1.808
1.823
1.838
1.828
1.813
1.813
1.828
1.818
1.794
1.794
1.808
1.799
1.779
1.764
1.774
1.769
1.735
1.72
1.735
1.735
1.72
1.706
1.711
1.72
1.701
1.686
1.696
1.706
1.691
1.667
1.662
1.672
1.662
1.642
1.647
1.667
1.672
1.657
1.657
1.672
1.676
1.652
1.642
1.657
1.657
1.642
1.637
1.647
1.662
1.647
1.632
1.647
1.662
1.652
1.637
1.642
1.657
1.652
1.628
1.637
1.657
1.657
1.642
1.642
1.652
1.662
1.637
1.637
1.652
1.662
1.647
1.637
1.652
1.662
1.652
1.637
1.652
1.667
1.657
1.647
1.647
1.667
1.662
1.637
1.642
1.662
1.662
1.652
1.652
1.662
1.667
1.647
1.647
1.667
1.676
1.667
1.657
1.667
1.681
1.672
1.652
1.667
1.676
1.667
1.652
1.657
1.672
1.667
1.647
1.652
1.672
1.672
1.662
1.657
1.672
1.676
1.652
1.647
1.667
1.676
1.662
1.652
1.662
1.676
1.657
1.642
1.662
1.676
1.667
1.657
1.662
1.676
1.672
1.647
1.652
1.672
1.667
1.652
1.652
1.667
1.676
1.652
1.647
1.667
1.672
1.657
1.642
1.652
1.662
1.652
1.637
1.657
1.676
1.672
1.657
1.662
1.676
1.662
1.642
1.642
1.662
1.662
1.652
1.647
1.667
1.672
1.647
1.642
1.662
1.667
1.657
1.642
1.652
1.662
1.647
1.632
1.647
1.667
1.657
1.642
1.647
1.667
1.662
1.642
1.647
1.667
1.662
1.647
1.647
1.662
1.667
1.647
1.642
1.662
1.672
1.662
1.652
1.662
1.676
1.657
1.642
1.657
1.672
1.662
1.647
1.652
1.667
1.662
1.642
1.652
1.672
1.672
1.657
1.657
1.667
1.672
1.652
1.647
1.667
1.672
1.662
1.652
1.667
1.681
1.667
1.652
1.667
1.681
1.676
1.662
1.667
1.681
1.676
1.657
1.667
1.691
1.696
1.681
1.681
1.691
1.696
1.672
1.667
1.681
1.686
1.667
1.657
1.667
1.676
1.662
1.647
1.657
1.672
1.662
1.647
1.647
1.662
1.657
1.632
1.642
1.657
1.657
1.642
1.642
1.657
1.657
1.637
1.637
1.657
1.667
1.652
1.647
1.657
1.667
1.647
1.632
1.647
1.662
1.657
1.652
1.667
1.696
1.706
1.701
1.725
1.76
1.779
1.784
1.804
1.838
1.848
1.833
1.823
1.828
1.804
1.75
1.686
1.632
1.584
1.505
1.432
1.393
1.364
1.334
1.315
1.334
1.373
1.403
1.422
1.476
1.54
1.579
1.598
1.618
1.652
1.667
1.652
1.657
1.681
1.691
1.686
1.676
1.686
1.701
1.681
1.667
1.681
1.701
1.691
1.676
1.686
1.706
1.696
1.676
1.686
1.706
1.701
1.691
1.686
1.706
1.706
1.686
1.686
1.706
1.716
1.706
1.696
1.706
1.72
1.706
1.691
1.706
1.72
1.716
1.706
1.711
1.725
1.72
1.701
1.706
1.725
1.72
1.706
1.706
1.72
1.725
1.711
1.706
1.725
1.735
1.725
1.716
1.725
1.74
1.72
1.711
1.73
1.745
1.735
1.725
1.73
1.75
1.745
1.725
1.735
1.755
1.755
1.745
1.745
1.76
1.769
1.755
1.755
1.779
1.789
1.789
1.784
1.799
1.813
1.799
1.789
1.808
1.828
1.823
1.813
1.823
1.843
1.838
1.818
1.833
1.857
1.857
1.848
1.843
1.857
1.862
1.843
1.838
1.857
1.867
1.852
1.843
1.857
1.867
1.848
1.828
1.838
1.843
1.828
1.804
1.799
1.808
1.794
1.769
1.764
1.774
1.764
1.745
1.735
1.74
1.74
1.711
1.701
1.716
1.716
1.696
1.676
1.681
1.681
1.662
1.647
1.662
1.672
1.667
1.652
1.657
1.667
1.657
1.632
1.637
1.652
1.652
1.637
1.632
1.647
1.652
1.632
1.632
1.647
1.652
1.637
1.628
1.637
1.647
1.632
1.618
1.632
1.642
1.637
1.628
1.632
1.652
1.647
1.628
1.637
1.657
1.652
1.637
1.632
1.647
1.652
1.632
1.632
1.652
1.662
1.652
1.642
1.652
1.662
1.642
1.632
1.647
1.667
1.657
1.647
1.652
1.667
1.662
1.642
1.647
1.667
1.662
1.647
1.647
1.662
1.667
1.642
1.637
1.652
1.662
1.647
1.642
1.647
1.662
1.647
1.637
1.652
1.667
1.657
1.647
1.652
1.667
1.662
1.647
1.657
1.672
1.672
1.657
1.657
1.672
1.672
1.647
1.647
1.662
1.667
1.657
1.647
1.657
1.667
1.652
1.642
1.657
1.672
1.662
1.652
1.657
1.676
1.667
1.642
1.647
1.662
1.662
1.647
1.647
1.662
1.672
1.652
1.652
1.672
1.672
1.657
1.647
1.657
1.667
1.647
1.632
1.647
1.662
1.657
1.652
1.657
1.672
1.662
1.642
1.647
1.667
1.662
1.647
1.647
1.662
1.667
1.647
1.642
1.662
1.667
1.657
1.642
1.657
1.667
1.647
1.628
1.647
1.662
1.657
1.647
1.657
1.672
1.667
1.647
1.657
1.672
1.667
1.652
1.647
1.662
1.662
1.642
1.642
1.662
1.667
1.657
1.647
1.657
1.672
1.657
1.642
1.662
1.676
1.667
1.652
1.662
1.676
1.667
1.652
1.662
1.681
1.676
1.662
1.657
1.672
1.676
1.652
1.657
1.676
1.686
1.676
1.667
1.681
1.691
1.672
1.662
1.676
1.686
1.676
1.667
1.676
1.696
1.691
1.676
1.686
1.706
1.706
1.696
1.691
1.706
1.701
1.672
1.667
1.676
1.676
1.662
1.652
1.662
1.676
1.662
1.647
1.667
1.676
1.667
1.652
1.657
1.667
1.657
1.637
1.647
1.667
1.662
1.647
1.647
1.667
1.667
1.647
1.647
1.667
1.672
1.662
1.652
1.662
1.676
1.657
1.652
1.681
1.706
1.711
1.711
1.73
1.764
1.779
1.784
1.808
1.843
1.857
1.848
1.843
1.838
1.808
1.74
1.686
1.642
1.584
1.505
1.432
1.393
1.359
1.32
1.315
1.344
1.388
1.422
1.461
1.515
1.579
1.603
1.613
1.642
1.672
1.672
1.667
1.672
1.691
1.701
1.681
1.681
1.701
1.706
1.696
1.686
1.701
1.711
1.696
1.686
1.701
1.716
1.701
1.691
1.696
1.711
1.701
1.686
1.696
1.716
1.716
1.701
1.701
1.72
1.72
1.696
1.696
1.716
1.72
1.706
1.701
1.711
1.72
1.706
1.696
1.716
1.73
1.72
1.716
1.72
1.735
1.73
1.711
1.72
1.74
1.73
1.716
1.716
1.73
1.73
1.706
1.711
1.735
1.745
1.74
1.735
1.75
1.764
1.745
1.73
1.745
1.76
1.75
1.74
1.75
1.769
1.764
1.745
1.76
1.779
1.774
1.769
1.769
1.789
1.794
1.774
1.779
1.799
1.804
1.799
1.799
1.813
1.833
1.818
1.813
1.833
1.848
1.838
1.828
1.833
1.848
1.843
1.823
1.838
1.857
1.857
1.848
1.848
1.867
1.867
1.843
1.843
1.857
1.862
1.848
1.838
1.843
1.843
1.818
1.799
1.808
1.818
1.799
1.779
1.779
1.789
1.769
1.74
1.74
1.745
1.73
1.706
1.696
1.706
1.701
1.672
1.672
1.691
1.696
1.681
1.667
1.676
1.681
1.657
1.642
1.657
1.662
1.652
1.642
1.647
1.662
1.652
1.632
1.642
1.662
1.657
1.637
1.632
1.647
1.647
1.623
1.628
1.647
1.652
1.642
1.632
1.642
1.657
1.637
1.623
1.637
1.652
1.642
1.628
1.632
1.652
1.642
1.623
1.637
1.657
1.652
1.642
1.642
1.657
1.657
1.628
1.628
1.652
1.652
1.642
1.637
1.652
1.667
1.647
1.637
1.652
1.667
1.657
1.647
1.657
1.672
1.662
1.647
1.657
1.676
1.672
1.652
1.652
1.667
1.667
1.642
1.647
1.667
1.672
1.657
1.652
1.667
1.676
1.657
1.647
1.667
1.676
1.667
1.657
1.662
1.676
1.662
1.642
1.657
1.672
1.672
1.657
1.657
1.672
1.672
1.647
1.647
1.672
1.672
1.662
1.652
1.667
1.672
1.657
1.642
1.662
1.672
1.662
1.652
1.657
1.672
1.662
1.642
1.652
1.672
1.667
1.652
1.652
1.667
1.667
1.647
1.652
1.672
1.676
1.662
1.652
1.662
1.667
1.647
1.637
1.657
1.672
1.667
1.662
1.672
1.681
1.672
1.652
1.657
1.676
1.672
1.657
1.657
1.676
1.676
1.657
1.657
1.681
1.681
1.672
1.667
1.676
1.691
1.672
1.662
1.676
1.691
1.681
1.667
1.681
1.696
1.686
1.672
1.686
1.706
1.701
1.686
1.681
1.696
1.696
1.667
1.662
1.676
1.676
1.657
1.647
1.657
1.667
1.652
1.642
1.657
1.672
1.662
1.652
1.657
1.667
1.652
1.632
1.642
1.662
1.657
1.642
1.647
1.672
1.672
1.652
1.652
1.672
1.676
1.662
1.652
1.662
1.672
1.647
1.642
1.667
1.681
1.681
1.676
1.696
1.72
1.725
1.72
1.75
1.784
1.799
1.804
1.818
1.838
1.828
1.789
1.76
1.735
1.686
1.618
1.549
1.5
1.457
1.388
1.344
1.344
1.354
1.359
1.373
1.413
1.471
1.505
1.53
1.579
1.628
1.642
1.642
1.657
1.681
1.686
1.672
1.676
1.696
1.696
1.681
1.676
1.686
1.696
1.676
1.667
1.686
1.701
1.696
1.686
1.696
1.716
1.706
1.686
1.701
1.716
1.716
1.701
1.701
1.716
1.716
1.691
1.696
1.716
1.716
1.706
1.701
1.716
1.72
1.706
1.696
1.716
1.725
1.716
1.701
1.706
1.72
1.711
1.691
1.706
1.725
1.72
1.706
1.711
1.735
1.735
1.716
1.716
1.735
1.74
1.73
1.72
1.735
1.75
1.73
1.725
1.745
1.755
1.75
1.74
1.75
1.764
1.755
1.735
1.75
1.769
1.764
1.755
1.76
1.779
1.779
1.764
1.769
1.794
1.799
1.789
1.789
1.808
1.818
1.804
1.804
1.828
1.843
1.838
1.833
1.843
1.857
1.848
1.833
1.848
1.867
1.862
1.848
1.852
1.867
1.867
1.852
1.852
1.872
1.872
1.852
1.838
1.848
1.852
1.823
1.808
1.828
1.828
1.813
1.794
1.794
1.799
1.774
1.74
1.74
1.745
1.73
1.711
1.706
1.711
1.706
1.672
1.672
1.686
1.681
1.662
1.652
1.662
1.667
1.642
1.632
1.647
1.657
1.642
1.632
1.637
1.652
1.637
1.623
1.632
1.647
1.642
1.628
1.632
1.647
1.647
1.628
1.628
1.647
1.647
1.632
1.623
1.637
1.647
1.628
1.623
1.637
1.652
1.637
1.628
1.637
1.652
1.642
1.628
1.637
1.652
1.647
1.632
1.628
1.642
1.637
1.618
1.623
1.647
1.652
1.637
1.632
1.647
1.657
1.637
1.628
1.647
1.657
1.642
1.637
1.642
1.657
1.642
1.628
1.637
1.657
1.652
1.642
1.642
1.662
1.662
1.637
1.642
1.662
1.662
1.647
1.642
1.657
1.667
1.647
1.642
1.662
1.667
1.657
1.642
1.652
1.667
1.657
1.637
1.652
1.667
1.662
1.647
1.652
1.667
1.667
1.642
1.652
1.672
1.672
1.662
1.657
1.672
1.676
1.652
1.642
1.657
1.667
1.652
1.642
1.652
1.672
1.657
1.642
1.652
1.672
1.662
1.647
1.647
1.662
1.657
1.637
1.642
1.662
1.667
1.652
1.652
1.662
1.672
1.647
1.642
1.657
1.667
1.652
1.642
1.652
1.667
1.657
1.637
1.652
1.667
1.662
1.652
1.657
1.676
1.672
1.652
1.657
1.676
1.676
1.662
1.662
1.676
1.691
1.672
1.672
1.696
1.706
1.691
1.676
1.681
1.691
1.672
1.647
1.652
1.667
1.652
1.637
1.642
1.657
1.652
1.628
1.637
1.657
1.657
1.647
1.642
1.652
1.662
1.637
1.628
1.652
1.662
1.647
1.637
1.647
1.662
1.642
1.628
1.637
1.652
1.642
1.632
1.632
1.652
1.652
1.632
1.642
1.672
1.681
1.681
1.686
1.711
1.73
1.725
1.74
1.774
1.799
1.804
1.808
1.818
1.828
1.799
1.755
1.73
1.701
1.642
1.569
1.51
1.466
1.413
1.349
1.329
1.344
1.349
1.364
1.393
1.452
1.505
1.53
1.564
1.613
1.642
1.642
1.642
1.657
1.676
1.667
1.657
1.672
1.686
1.681
1.667
1.672
1.686
1.686
1.667
1.676
1.696
1.696
1.686
1.681
1.691
1.701
1.676
1.672
1.696
1.706
1.691
1.686
1.696
1.711
1.696
1.681
1.696
1.711
1.701
1.691
1.691
1.706
1.706
1.681
1.691
1.711
1.711
1.696
1.691
1.706
1.716
1.696
1.696
1.716
1.725
1.716
1.706
1.716
1.73
1.716
1.696
1.716
1.73
1.72
1.711
1.716
1.735
1.73
1.711
1.716
1.74
1.74
1.73
1.73
1.75
1.755
1.735
1.73
1.75
1.755
1.745
1.745
1.76
1.779
1.774
1.764
1.784
1.804
1.799
1.789
1.794
1.808
1.804
1.784
1.799
1.823
1.828
1.818
1.818
1.838
1.848
1.828
1.823
1.848
1.852
1.843
1.833
1.848
1.857
1.848
1.833
1.848
1.857
1.848
1.828
1.828
1.838
1.828
1.799
1.794
1.808
1.799
1.779
1.769
1.774
1.769
1.74
1.73
1.74
1.74
1.716
1.696
1.696
1.701
1.681
1.662
1.672
1.681
1.667
1.647
1.647
1.657
1.647
1.623
1.628
1.647
1.647
1.632
1.628
1.642
1.647
1.623
1.623
1.637
1.647
1.632
1.623
1.632
1.642
1.628
1.608
1.623
1.642
1.637
1.623
1.628
1.647
1.642
1.618
1.628
1.642
1.642
1.632
1.628
1.642
1.647
1.628
1.628
1.647
1.652
1.642
1.628
1.637
1.647
1.632
1.618
1.632
1.647
1.642
1.628
1.632
1.647
1.647
1.628
1.632
1.652
1.647
1.628
1.628
1.647
1.657
1.637
1.637
1.652
1.662
1.652
1.642
1.652
1.662
1.647
1.632
1.647
1.667
1.662
1.652
1.657
1.672
1.667
1.637
1.642
1.662
1.657
1.647
1.642
1.657
1.667
1.647
1.642
1.662
1.672
1.662
1.647
1.657
1.667
1.652
1.637
1.652
1.667
1.657
1.642
1.647
1.662
1.657
1.637
1.642
1.662
1.662
1.647
1.642
1.657
1.662
1.642
1.637
1.657
1.667
1.662
1.652
1.667
1.676
1.657
1.642
1.657
1.667
1.657
1.642
1.647
1.662
1.657
1.637
1.647
1.667
1.667
1.652
1.652
1.667
1.667
1.642
1.637
1.657
1.662
1.652
1.637
1.652
1.667
1.652
1.637
1.657
1.672
1.662
1.647
1.652
1.667
1.662
1.642
1.647
1.672
1.672
1.657
1.657
1.672
1.672
1.647
1.642
1.662
1.672
1.662
1.657
1.672
1.686
1.672
1.657
1.672
1.681
1.676
1.662
1.672
1.686
1.686
1.662
1.672
1.691
1.691
1.676
1.676
1.686
1.691
1.667
1.662
1.676
1.676
1.662
1.647
1.657
1.667
1.652
1.642
1.657
1.672
1.657
1.642
1.642
1.657
1.647
1.628
1.637
1.657
1.657
1.647
1.642
1.662
1.667
1.642
1.637
1.657
1.662
1.652
1.642
1.652
1.662
1.642
1.632
1.647
1.667
1.667
1.662
1.681
1.706
1.711
1.701
1.725
1.76
1.774
1.774
1.789
1.818
1.833
1.813
1.804
1.808
1.784
1.73
1.672
1.623
1.569
1.491
1.417
1.383
1.359
1.334
1.325
1.349
1.398
1.427
1.452
1.505
1.564
1.598
1.613
1.628
1.652
1.667
1.647
1.657
1.681
1.691
1.681
1.672
1.681
1.696
1.676
1.662
1.676
1.691
1.681
1.667
1.676
1.691
1.691
1.672
1.686
1.706
1.706
1.696
1.691
1.706
1.711
1.686
1.686
1.701
1.711
1.701
1.696
1.706
1.72
1.701
1.691
1.706
1.72
1.706
1.696
1.701
1.716
1.711
1.691
1.701
1.72
1.72
1.711
1.706
1.72
1.725
1.706
1.701
1.72
1.725
1.716
1.706
1.72
1.735
1.72
1.711
1.725
1.74
1.73
1.716
1.72
1.74
1.73
1.716
1.73
1.755
1.76
1.75
1.75
1.764
1.769
1.745
1.75
1.774
1.784
1.779
1.774
1.789
1.808
1.794
1.784
1.804
1.823
1.818
1.808
1.818
1.833
1.828
1.813
1.823
1.843
1.838
1.828
1.833
1.852
1.862
1.843
1.843
1.857
1.862
1.843
1.833
1.843
1.848
1.823
1.808
1.823
1.833
1.818
1.799
1.794
1.799
1.784
1.75
1.75
1.76
1.745
1.72
1.711
1.716
1.711
1.681
1.676
1.691
1.691
1.672
1.662
1.667
1.676
1.657
1.642
1.652
1.662
1.652
1.637
1.642
1.662
1.652
1.628
1.637
1.652
1.647
1.632
1.628
1.642
1.652
1.632
1.632
1.652
1.652
1.642
1.632
1.647
1.652
1.632
1.618
1.632
1.647
1.637
1.628
1.637
1.652
1.642
1.623
1.632
1.647
1.647
1.632
1.632
1.647
1.652
1.623
1.623
1.647
1.652
1.642
1.637
1.647
1.662
1.642
1.628
1.647
1.657
1.647
1.637
1.642
1.657
1.642
1.623
1.632
1.652
1.652
1.642
1.647
1.667
1.672
1.652
1.652
1.672
1.676
1.662
1.647
1.652
1.667
1.647
1.637
1.657
1.667
1.657
1.642
1.652
1.667
1.662
1.637
1.647
1.667
1.662
1.647
1.647
1.667
1.667
1.642
1.642
1.667
1.667
1.657
1.647
1.662
1.672
1.652
1.642
1.657
1.667
1.657
1.642
1.652
1.667
1.657
1.642
1.652
1.672
1.667
1.657
1.657
1.672
1.672
1.652
1.652
1.672
1.676
1.662
1.647
1.657
1.662
1.642
1.632
1.652
1.667
1.657
1.652
1.662
1.676
1.672
1.647
1.657
1.676
1.667
1.652
1.647
1.667
1.667
1.642
1.642
1.667
1.672
1.657
1.652
1.662
1.672
1.652
1.642
1.662
1.672
1.662
1.647
1.652
1.672
1.662
1.642
1.647
1.667
1.662
1.652
1.652
1.672
1.672
1.652
1.657
1.676
1.681
1.672
1.662
1.676
1.681
1.662
1.652
1.667
1.676
1.672
1.662
1.667
1.686
1.676
1.657
1.672
1.691
1.686
1.672
1.672
1.686
1.691
1.667
1.667
1.686
1.691
1.681
1.676
1.691
1.706
1.686
1.676
1.691
1.701
1.686
1.667
1.667
1.676
1.662
1.642
1.652
1.662
1.657
1.642
1.642
1.662
1.662
1.642
1.642
1.667
1.667
1.657
1.652
1.662
1.672
1.652
1.637
1.652
1.667
1.657
1.642
1.652
1.662
1.652
1.637
1.647
1.667
1.662
1.652
1.657
1.676
1.686
1.676
1.691
1.73
1.755
1.76
1.774
1.804
1.828
1.823
1.828
1.843
1.848
1.813
1.769
1.73
1.691
1.618
1.54
1.486
1.442
1.388
1.339
1.325
1.344
1.359
1.369
1.408
1.471
1.525
1.554
1.584
1.623
1.652
1.647
1.652
1.676
1.691
1.681
1.672
1.681
1.701
1.691
1.672
1.681
1.696
1.696
1.686
1.686
1.706
1.706
1.681
1.681
1.701
1.706
1.691
1.686
1.696
1.711
1.691
1.686
1.706
1.716
1.706
1.696
1.706
1.72
1.706
1.686
1.701
1.716
1.711
1.701
1.701
1.72
1.72
1.696
1.701
1.72
1.72
1.706
1.701
1.716
1.725
1.711
1.701
1.72
1.73
1.725
1.716
1.72
1.735
1.725
1.711
1.725
1.74
1.74
1.725
1.73
1.745
1.745
1.725
1.73
1.75
1.755
1.745
1.745
1.76
1.769
1.75
1.745
1.769
1.784
1.779
1.769
1.779
1.799
1.789
1.779
1.794
1.813
1.813
1.804
1.804
1.823
1.828
1.808
1.813
1.833
1.843
1.833
1.833
1.852
1.862
1.843
1.833
1.852
1.862
1.852
1.848
1.857
1.867
1.857
1.833
1.843
1.852
1.838
1.818
1.808
1.823
1.818
1.784
1.779
1.789
1.784
1.76
1.745
1.75
1.75
1.72
1.706
1.716
1.716
1.696
1.676
1.676
1.686
1.672
1.647
1.662
1.676
1.667
1.652
1.647
1.662
1.657
1.632
1.632
1.647
1.652
1.637
1.632
1.642
1.652
1.632
1.623
1.642
1.657
1.642
1.632
1.642
1.657
1.647
1.628
1.637
1.657
1.652
1.637
1.642
1.652
1.652
1.623
1.623
1.642
1.642
1.632
1.623
1.637
1.647
1.632
1.628
1.642
1.652
1.642
1.632
1.642
1.657
1.647
1.628
1.642
1.657
1.647
1.637
1.637
1.657
1.657
1.637
1.642
1.667
1.667
1.647
1.642
1.652
1.662
1.642
1.637
1.657
1.672
1.662
1.652
1.662
1.672
1.657
1.637
1.647
1.662
1.657
1.647
1.647
1.667
1.662
1.642
1.647
1.662
1.662
1.647
1.642
1.652
1.662
1.637
1.632
1.652
1.662
1.657
1.647
1.662
1.676
1.662
1.647
1.657
1.672
1.667
1.652
1.652
1.667
1.662
1.637
1.642
1.662
1.667
1.652
1.647
1.662
1.667
1.647
1.642
1.657
1.662
1.647
1.637
1.652
1.672
1.662
1.642
1.657
1.676
1.667
1.652
1.652
1.667
1.662
1.637
1.642
1.662
1.667
1.652
1.647
1.657
1.667
1.647
1.642
1.657
1.662
1.652
1.642
1.652
1.667
1.657
1.637
1.652
1.672
1.667
1.652
1.652
1.667
1.662
1.642
1.647
1.662
1.662
1.652
1.642
1.662
1.667
1.647
1.642
1.662
1.672
1.662
1.657
1.667
1.681
1.667
1.652
1.662
1.676
1.672
1.657
1.662
1.676
1.676
1.652
1.657
1.676
1.676
1.667
1.662
1.676
1.681
1.662
1.657
1.672
1.681
1.672
1.667
1.676
1.691
1.672
1.657
1.667
1.686
1.681
1.672
1.676
1.696
1.696
1.681
1.686
1.701
1.701
1.686
1.676
1.686
1.686
1.662
1.647
1.662
1.667
1.652
1.642
1.652
1.667
1.652
1.642
1.657
1.676
1.667
1.652
1.652
1.667
1.657
1.637
1.642
1.662
1.662
1.647
1.642
1.662
1.667
1.647
1.642
1.662
1.672
1.662
1.652
1.662
1.681
1.672
1.667
1.691
1.725
1.73
1.735
1.76
1.794
1.808
1.804
1.823
1.848
1.848
1.823
1.799
1.779
1.74
1.662
1.593
1.544
1.486
1.413
1.354
1.329
1.329
1.325
1.334
1.383
1.442
1.481
1.52
1.564
1.608
1.632
1.628
1.642
1.667
1.676
1.672
1.672
1.691
1.701
1.676
1.676
1.691
1.701
1.686
1.676
1.691
1.706
1.691
1.676
1.691
1.701
1.696
1.686
1.691
1.706
1.701
1.681
1.691
1.711
1.711
1.696
1.696
1.711
1.716
1.696
1.691
1.711
1.72
1.706
1.696
1.706
1.725
1.711
1.696
1.711
1.725
1.72
1.711
1.711
1.725
1.72
1.701
1.711
1.73
1.735
1.725
1.72
1.735
1.74
1.72
1.716
1.735
1.745
1.735
1.73
1.74
1.755
1.74
1.725
1.74
1.755
1.75
1.735
1.745
1.764
1.764
1.75
1.76
1.779
1.784
1.769
1.769
1.789
1.799
1.784
1.784
1.808
1.823
1.813
1.808
1.818
1.833
1.818
1.808
1.828
1.848
1.843
1.838
1.848
1.867
1.867
1.852
1.857
1.872
1.867
1.852
1.852
1.867
1.872
1.848
1.843
1.862
1.867
1.852
1.833
1.838
1.838
1.813
1.789
1.794
1.799
1.784
1.76
1.755
1.76
1.745
1.716
1.716
1.725
1.716
1.696
1.686
1.696
1.691
1.667
1.657
1.676
1.681
1.667
1.657
1.667
1.672
1.652
1.637
1.647
1.657
1.652
1.637
1.642
1.657
1.652
1.632
1.642
1.657
1.657
1.642
1.637
1.657
1.662
1.642
1.642
1.657
1.662
1.647
1.637
1.642
1.657
1.637
1.628
1.642
1.657
1.652
1.642
1.647
1.662
1.657
1.632
1.637
1.657
1.652
1.637
1.637
1.652
1.657
1.637
1.637
1.657
1.662
1.647
1.637
1.647
1.662
1.647
1.637
1.652
1.672
1.667
1.652
1.652
1.672
1.662
1.642
1.647
1.667
1.667
1.657
1.657
1.676
1.681
1.657
1.652
1.667
1.672
1.662
1.652
1.667
1.681
1.667
1.652
1.667
1.681
1.672
1.657
1.657
1.672
1.667
1.647
1.657
1.672
1.672
1.657
1.657
1.672
1.676
1.657
1.657
1.676
1.681
1.672
1.662
1.667
1.676
1.657
1.647
1.662
1.676
1.667
1.652
1.657
1.672
1.667
1.642
1.652
1.672
1.667
1.657
1.657
1.672
1.672
1.647
1.642
1.662
1.667
1.657
1.647
1.662
1.672
1.657
1.647
1.662
1.676
1.667
1.652
1.657
1.672
1.667
1.647
1.652
1.672
1.672
1.657
1.657
1.672
1.676
1.657
1.657
1.672
1.676
1.662
1.652
1.662
1.672
1.652
1.642
1.657
1.667
1.662
1.652
1.657
1.676
1.672
1.652
1.662
1.681
1.676
1.662
1.662
1.676
1.681
1.657
1.657
1.672
1.681
1.667
1.662
1.676
1.696
1.681
1.667
1.686
1.701
1.691
1.676
1.676
1.691
1.681
1.662
1.672
1.691
1.691
1.681
1.686
1.706
1.706
1.681
1.681
1.701
1.701
1.686
1.672
1.676
1.681
1.662
1.647
1.667
1.681
1.672
1.657
1.662
1.676
1.662
1.642
1.647
1.667
1.667
1.652
1.652
1.667
1.672
1.652
1.647
1.667
1.672
1.657
1.652
1.662
1.676
1.657
1.642
1.662
1.672
1.662
1.647
1.657
1.681
1.681
1.667
1.686
1.716
1.73
1.735
1.755
1.794
1.813
1.808
1.823
1.852
1.852
1.818
1.779
1.75
1.711
1.637
1.569
1.52
1.471
1.413
1.359
1.344
1.349
1.349
1.354
1.398
1.457
1.505
1.54
1.584
1.628
1.657
1.647
1.652
1.681
1.691
1.681
1.672
1.691
1.706
1.691
1.676
1.691
1.706
1.696
1.686
1.696
1.711
1.706
1.686
1.696
1.711
1.711
1.696
1.691
1.701
1.701
1.676
1.681
1.701
1.711
1.706
1.701
1.716
1.73
1.711
1.701
1.711
1.72
1.706
1.696
1.706
1.72
1.72
1.701
1.716
1.735
1.735
1.72
1.716
1.73
1.735
1.716
1.716
1.735
1.74
1.73
1.725
1.735
1.74
1.725
1.716
1.735
1.745
1.74
1.73
1.74
1.755
1.75
1.73
1.74
1.76
1.755
1.745
1.75
1.764
1.774
1.755
1.76
1.784
1.789
1.779
1.774
1.789
1.804
1.789
1.784
1.804
1.818
1.813
1.808
1.818
1.838
1.833
1.813
1.828
1.852
1.852
1.838
1.843
1.857
1.862
1.843
1.843
1.862
1.867
1.857
1.852
1.862
1.872
1.852
1.838
1.848
1.852
1.843
1.823
1.823
1.828
1.808
1.784
1.784
1.794
1.784
1.76
1.75
1.755
1.75
1.716
1.711
1.72
1.716
1.696
1.681
1.686
1.691
1.667
1.652
1.662
1.672
1.662
1.652
1.662
1.676
1.662
1.637
1.642
1.657
1.647
1.628
1.623
1.637
1.637
1.618
1.628
1.647
1.652
1.637
1.632
1.647
1.652
1.632
1.618
1.637
1.647
1.632
1.623
1.628
1.647
1.637
1.623
1.637
1.657
1.652
1.637
1.632
1.647
1.642
1.618
1.623
1.642
1.647
1.637
1.637
1.652
1.662
1.642
1.632
1.647
1.662
1.647
1.632
1.642
1.657
1.647
1.632
1.647
1.662
1.657
1.647
1.647
1.662
1.662
1.642
1.642
1.667
1.672
1.657
1.647
1.657
1.667
1.642
1.632
1.652
1.662
1.657
1.647
1.657
1.672
1.662
1.642
1.657
1.672
1.667
1.652
1.652
1.667
1.667
1.642
1.642
1.662
1.662
1.652
1.647
1.662
1.672
1.652
1.642
1.657
1.672
1.657
1.647
1.652
1.667
1.657
1.637
1.652
1.667
1.662
1.647
1.652
1.667
1.667
1.642
1.642
1.662
1.662
1.647
1.642
1.657
1.667
1.647
1.642
1.657
1.667
1.657
1.647
1.652
1.667
1.657
1.642
1.652
1.672
1.667
1.657
1.657
1.672
1.672
1.647
1.652
1.672
1.672
1.662
1.657
1.672
1.686
1.667
1.657
1.681
1.691
1.681
1.667
1.672
1.686
1.676
1.662
1.676
1.691
1.691
1.676
1.676
1.691
1.686
1.657
1.652
1.667
1.667
1.647
1.642
1.657
1.662
1.642
1.637
1.652
1.662
1.652
1.642
1.652
1.662
1.652
1.628
1.642
1.657
1.652
1.637
1.637
1.657
1.657
1.632
1.637
1.657
1.662
1.647
1.642
1.652
1.662
1.647
1.637
1.662
1.676
1.672
1.672
1.691
1.716
1.72
1.716
1.745
1.779
1.789
1.789
1.804
1.823
1.823
1.784
1.76
1.745
1.696
1.628
1.559
1.51
1.461
1.388
1.344
1.344
1.349
1.349
1.364
1.408
1.466
1.496
1.52
1.574
1.623
1.637
1.642
1.652
1.676
1.681
1.662
1.672
1.691
1.696
1.676
1.672
1.681
1.686
1.667
1.662
1.686
1.696
1.691
1.681
1.691
1.711
1.696
1.676
1.691
1.701
1.696
1.686
1.686
1.706
1.706
1.686
1.696
1.716
1.716
1.706
1.701
1.711
1.716
1.691
1.686
1.706
1.716
1.706
1.696
1.706
1.72
1.706
1.691
1.701
1.72
1.716
1.706
1.711
1.725
1.73
1.711
1.72
1.74
1.74
1.725
1.72
1.73
1.74
1.72
1.711
1.73
1.74
1.73
1.725
1.735
1.75
1.74
1.73
1.75
1.764
1.76
1.75
1.755
1.769
1.769
1.755
1.76
1.784
1.794
1.784
1.784
1.804
1.813
1.794
1.794
1.818
1.828
1.823
1.818
1.833
1.848
1.838
1.823
1.838
1.852
1.848
1.833
1.838
1.862
1.857
1.843
1.848
1.867
1.862
1.848
1.838
1.848
1.848
1.818
1.804
1.813
1.813
1.794
1.779
1.779
1.784
1.764
1.74
1.745
1.755
1.735
1.716
1.706
1.711
1.701
1.667
1.672
1.681
1.676
1.657
1.647
1.657
1.662
1.642
1.632
1.647
1.657
1.642
1.632
1.637
1.647
1.637
1.623
1.632
1.647
1.642
1.628
1.628
1.642
1.637
1.613
1.623
1.637
1.637
1.628
1.623
1.637
1.642
1.623
1.618
1.637
1.642
1.632
1.623
1.632
1.647
1.632
1.618
1.628
1.642
1.637
1.628
1.632
1.647
1.647
1.623
1.628
1.647
1.647
1.637
1.632
1.647
1.657
1.632
1.628
1.647
1.657
1.647
1.642
1.652
1.672
1.652
1.637
1.647
1.662
1.652
1.637
1.637
1.652
1.652
1.632
1.642
1.662
1.667
1.657
1.652
1.662
1.667
1.642
1.637
1.657
1.667
1.657
1.647
1.662
1.676
1.662
1.652
1.662
1.676
1.662
1.647
1.647
1.662
1.657
1.632
1.642
1.662
1.662
1.652
1.647
1.662
1.672
1.652
1.642
1.662
1.672
1.657
1.642
1.652
1.662
1.642
1.628
1.642
1.657
1.652
1.642
1.647
1.667
1.662
1.642
1.647
1.662
1.662
1.642
1.637
1.652
1.657
1.637
1.632
1.652
1.662
1.652
1.642
1.652
1.662
1.647
1.632
1.647
1.662
1.652
1.642
1.647
1.662
1.657
1.632
1.642
1.662
1.662
1.647
1.642
1.657
1.662
1.637
1.637
1.657
1.662
1.652
1.647
1.657
1.672
1.657
1.642
1.657
1.672
1.662
1.652
1.652
1.672
1.667
1.642
1.652
1.672
1.667
1.652
1.652
1.672
1.681
1.657
1.657
1.676
1.686
1.676
1.667
1.681
1.696
1.681
1.672
1.686
1.701
1.691
1.672
1.672
1.681
1.667
1.642
1.647
1.662
1.662
1.647
1.642
1.657
1.662
1.637
1.637
1.652
1.662
1.647
1.637
1.647
1.662
1.647
1.632
1.647
1.662
1.652
1.642
1.647
1.662
1.657
1.632
1.642
1.662
1.657
1.642
1.642
1.662
1.667
1.652
1.652
1.681
1.701
1.706
1.711
1.74
1.769
1.779
1.784
1.818
1.843
1.838
1.818
1.808
1.789
1.745
1.672
1.623
1.584
1.515
1.442
1.388
1.364
1.349
1.325
1.334
1.378
1.422
1.457
1.491
1.549
1.593
1.603
1.608
1.637
1.657
1.657
1.652
1.667
1.686
1.681
1.662
1.672
1.691
1.686
1.676
1.676
1.691
1.696
1.676
1.672
1.691
1.696
1.686
1.676
1.691
1.706
1.686
1.676
1.691
1.706
1.696
1.681
1.691
1.706
1.701
1.686
1.696
1.716
1.716
1.696
1.691
1.706
1.711
1.691
1.686
1.706
1.716
1.706
1.701
1.716
1.73
1.716
1.701
1.716
1.73
1.72
1.706
1.711
1.72
1.716
1.696
1.711
1.73
1.735
1.72
1.72
1.735
1.735
1.711
1.711
1.73
1.74
1.73
1.725
1.745
1.76
1.75
1.74
1.755
1.769
1.76
1.75
1.755
1.774
1.769
1.755
1.774
1.794
1.799
1.794
1.794
1.818
1.823
1.804
1.804
1.828
1.833
1.828
1.823
1.838
1.852
1.838
1.823
1.838
1.848
1.843
1.828
1.833
1.852
1.848
1.828
1.833
1.848
1.843
1.823
1.818
1.823
1.818
1.794
1.784
1.794
1.794
1.769
1.75
1.75
1.75
1.725
1.706
1.716
1.72
1.711
1.691
1.691
1.706
1.686
1.662
1.662
1.676
1.667
1.652
1.647
1.657
1.662
1.637
1.637
1.657
1.662
1.647
1.637
1.647
1.652
1.632
1.618
1.632
1.642
1.628
1.618
1.628
1.647
1.642
1.623
1.632
1.652
1.647
1.642
1.637
1.652
1.652
1.628
1.628
1.642
1.647
1.637
1.628
1.632
1.642
1.623
1.618
1.637
1.652
1.647
1.637
1.642
1.662
1.652
1.632
1.637
1.652
1.647
1.632
1.632
1.647
1.652
1.632
1.632
1.652
1.657
1.647
1.637
1.647
1.662
1.642
1.632
1.652
1.662
1.657
1.647
1.652
1.667
1.662
1.642
1.652
1.667
1.662
1.642
1.642
1.662
1.667
1.642
1.647
1.662
1.667
1.652
1.647
1.657
1.667
1.652
1.637
1.652
1.667
1.657
1.652
1.662
1.676
1.662
1.642
1.652
1.672
1.667
1.647
1.647
1.657
1.662
1.637
1.637
1.657
1.662
1.647
1.642
1.652
1.662
1.642
1.632
1.642
1.657
1.652
1.642
1.647
1.662
1.657
1.637
1.652
1.667
1.662
1.647
1.647
1.662
1.662
1.642
1.637
1.657
1.662
1.647
1.642
1.657
1.667
1.652
1.642
1.662
1.676
1.662
1.647
1.652
1.667
1.652
1.632
1.647
1.662
1.662
1.647
1.647
1.662
1.657
1.637
1.637
1.657
1.662
1.652
1.647
1.657
1.667
1.647
1.637
1.657
1.672
1.662
1.647
1.657
1.676
1.667
1.647
1.662
1.676
1.667
1.652
1.652
1.662
1.667
1.642
1.647
1.667
1.676
1.662
1.662
1.672
1.686
1.667
1.662
1.681
1.691
1.681
1.667
1.672
1.686
1.676
1.652
1.667
1.686
1.681
1.672
1.681
1.701
1.706
1.681
1.681
1.696
1.691
1.672
1.657
1.662
1.672
1.652
1.642
1.662
1.672
1.662
1.652
1.657
1.672
1.657
1.642
1.647
1.667
1.662
1.647
1.647
1.662
1.667
1.642
1.642
1.657
1.662
1.642
1.637
1.652
1.667
1.647
1.642
1.662
1.676
1.667
1.657
1.667
1.681
1.676
1.676
1.701
1.735
1.745
1.755
1.774
1.808
1.823
1.813
1.823
1.843
1.838
1.804
1.764
1.73
1.686
1.603
1.525
1.476
1.427
1.369
1.325
1.32
1.339
1.349
1.369
1.422
1.486
1.525
1.549
1.584
1.623
1.642
1.632
1.642
1.672
1.681
1.672
1.667
1.681
1.696
1.672
1.667
1.686
1.701
1.696
1.686
1.696
1.711
1.696
1.672
1.676
1.691
1.686
1.676
1.681
1.701
1.706
1.686
1.691
1.711
1.716
1.701
1.691
1.701
1.716
1.696
1.686
1.706
1.716
1.706
1.691
1.696
1.706
1.696
1.681
1.701
1.72
1.716
1.706
1.706
1.72
1.725
1.701
1.706
1.72
1.725
1.716
1.711
1.725
1.735
1.711
1.706
1.72
1.73
1.725
1.716
1.725
1.74
1.73
1.72
1.735
1.755
1.75
1.74
1.74
1.76
1.764
1.745
1.75
1.769
1.774
1.764
1.76
1.779
1.794
1.774
1.774
1.794
1.808
1.804
1.799
1.808
1.828
1.818
1.804
1.818
1.838
1.838
1.828
1.833
1.848
1.852
1.833
1.838
1.857
1.862
1.848
1.843
1.857
1.862
1.843
1.833
1.843
1.848
1.828
1.813
1.813
1.818
1.794
1.769
1.769
1.779
1.764
1.74
1.74
1.75
1.745
1.72
1.716
1.725
1.716
1.691
1.676
1.681
1.681
1.652
1.642
1.657
1.667
1.652
1.642
1.647
1.657
1.642
1.623
1.632
1.647
1.637
1.628
1.628
1.642
1.642
1.623
1.628
1.647
1.652
1.642
1.632
1.647
1.657
1.637
1.628
1.647
1.652
1.637
1.623
1.632
1.647
1.632
1.618
1.628
1.647
1.647
1.642
1.647
1.662
1.657
1.632
1.637
1.652
1.652
1.637
1.628
1.642
1.647
1.628
1.623
1.642
1.652
1.647
1.632
1.647
1.662
1.652
1.637
1.652
1.667
1.662
1.647
1.647
1.657
1.652
1.628
1.632
1.657
1.657
1.647
1.647
1.667
1.676
1.657
1.652
1.667
1.672
1.657
1.647
1.657
1.667
1.652
1.637
1.652
1.667
1.662
1.647
1.652
1.667
1.667
1.642
1.652
1.672
1.672
1.657
1.652
1.667
1.667
1.642
1.637
1.657
1.667
1.657
1.647
1.652
1.667
1.652
1.637
1.647
1.662
1.652
1.637
1.637
1.657
1.652
1.637
1.642
1.657
1.657
1.642
1.637
1.652
1.657
1.637
1.632
1.652
1.662
1.647
1.642
1.652
1.667
1.647
1.632
1.642
1.657
1.657
1.642
1.647
1.667
1.667
1.642
1.647
1.667
1.662
1.647
1.642
1.652
1.662
1.637
1.637
1.657
1.667
1.652
1.637
1.647
1.662
1.647
1.632
1.642
1.662
1.657
1.647
1.652
1.667
1.667
1.642
1.647
1.667
1.667
1.647
1.642
1.652
1.662
1.642
1.637
1.657
1.672
1.662
1.652
1.667
1.676
1.662
1.642
1.657
1.672
1.667
1.652
1.657
1.676
1.676
1.652
1.662
1.676
1.681
1.667
1.662
1.676
1.686
1.662
1.662
1.681
1.691
1.676
1.672
1.686
1.706
1.691
1.676
1.686
1.701
1.691
1.672
1.667
1.681
1.672
1.647
1.652
1.672
1.672
1.657
1.647
1.662
1.667
1.642
1.637
1.657
1.662
1.647
1.642
1.652
1.667
1.652
1.637
1.652
1.667
1.657
1.647
1.652
1.667
1.662
1.642
1.647
1.667
1.662
1.652
1.652
1.672
1.691
1.676
1.686
1.72
1.745
1.75
1.755
1.784
1.818
1.823
1.823
1.848
1.857
1.838
1.794
1.76
1.72
1.657
1.569
1.51
1.461
1.403
1.344
1.31
1.32
1.334
1.339
1.369
1.437
1.496
1.535
1.569
1.613
1.647
1.647
1.647
1.667
1.691
1.686
1.681
1.686
1.706
1.701
1.676
1.686
1.701
1.701
1.686
1.681
1.696
1.706
1.681
1.681
1.701
1.711
1.696
1.691
1.701
1.716
1.701
1.686
1.701
1.72
1.711
1.701
1.706
1.72
1.716
1.691
1.701
1.716
1.716
1.701
1.701
1.716
1.72
1.701
1.701
1.72
1.73
1.72
1.711
1.725
1.735
1.72
1.701
1.716
1.735
1.73
1.72
1.72
1.74
1.735
1.716
1.725
1.745
1.745
1.73
1.73
1.745
1.755
1.735
1.74
1.755
1.76
1.745
1.74
1.755
1.769
1.76
1.75
1.774
1.794
1.789
1.779
1.784
1.799
1.794
1.774
1.784
1.808
1.813
1.804
1.808
1.828
1.838
1.818
1.818
1.838
1.848
1.838
1.833
1.848
1.862
1.848
1.838
1.857
1.872
1.862
1.852
1.857
1.872
1.862
1.838
1.843
1.852
1.848
1.828
1.818
1.828
1.828
1.799
1.784
1.799
1.794
1.769
1.75
1.745
1.745
1.72
1.701
1.711
1.72
1.711
1.691
1.696
1.706
1.691
1.662
1.667
1.681
1.676
1.657
1.652
1.662
1.667
1.647
1.642
1.657
1.662
1.647
1.637
1.647
1.657
1.642
1.628
1.642
1.657
1.652
1.637
1.642
1.657
1.652
1.632
1.642
1.657
1.647
1.632
1.632
1.647
1.652
1.632
1.632
1.657
1.662
1.652
1.642
1.647
1.657
1.637
1.623
1.637
1.652
1.647
1.637
1.647
1.662
1.657
1.637
1.642
1.662
1.657
1.642
1.637
1.657
1.662
1.642
1.642
1.667
1.672
1.662
1.657
1.662
1.672
1.647
1.637
1.652
1.662
1.657
1.647
1.652
1.672
1.667
1.647
1.657
1.676
1.672
1.662
1.657
1.672
1.676
1.652
1.652
1.672
1.672
1.657
1.652
1.662
1.676
1.657
1.647
1.662
1.676
1.672
1.657
1.662
1.676
1.667
1.652
1.662
1.676
1.672
1.662
1.657
1.676
1.676
1.652
1.652
1.667
1.672
1.657
1.647
1.657
1.667
1.647
1.637
1.657
1.672
1.662
1.652
1.657
1.672
1.667
1.647
1.657
1.672
1.667
1.657
1.652
1.672
1.676
1.652
1.652
1.667
1.676
1.662
1.657
1.672
1.681
1.662
1.647
1.667
1.681
1.672
1.662
1.672
1.686
1.676
1.657
1.667
1.686
1.681
1.667
1.667
1.681
1.686
1.667
1.667
1.696
1.706
1.696
1.691
1.701
1.711
1.686
1.672
1.681
1.686
1.672
1.652
1.657
1.672
1.662
1.642
1.652
1.672
1.672
1.652
1.652
1.667
1.667
1.642
1.642
1.662
1.667
1.652
1.647
1.657
1.667
1.647
1.637
1.652
1.662
1.652
1.642
1.652
1.667
1.657
1.637
1.647
1.672
1.672
1.662
1.672
1.696
1.706
1.696
1.711
1.745
1.764
1.764
1.774
1.799
1.828
1.818
1.808
1.818
1.808
1.764
1.706
1.662
1.613
1.54
1.457
1.408
1.378
1.349
1.325
1.329
1.369
1.403
1.427
1.471
1.535
1.579
1.603
1.623
1.652
1.672
1.662
1.662
1.686
1.706
1.696
1.686
1.691
1.706
1.696
1.676
1.686
1.706
1.706
1.696
1.696
1.711
1.711
1.686
1.686
1.706
1.706
1.696
1.691
1.706
1.716
1.696
1.686
1.706
1.716
1.706
1.696
1.701
1.716
1.711
1.691
1.706
1.725
1.72
1.706
1.706
1.725
1.725
1.706
1.706
1.725
1.73
1.716
1.711
1.72
1.735
1.72
1.711
1.73
1.745
1.735
1.725
1.735
1.75
1.74
1.72
1.73
1.75
1.745
1.73
1.735
1.755
1.755
1.735
1.74
1.764
1.769
1.76
1.75
1.764
1.779
1.764
1.76
1.779
1.794
1.789
1.784
1.799
1.813
1.808
1.794
1.804
1.828
1.828
1.818
1.823
1.843
1.848
1.833
1.838
1.852
1.862
1.848
1.843
1.857
1.867
1.848
1.843
1.857
1.867
1.857
1.843
1.848
1.862
1.848
1.823
1.828
1.838
1.833
1.808
1.799
1.804
1.794
1.76
1.755
1.764
1.76
1.735
1.716
1.72
1.72
1.691
1.676
1.686
1.691
1.676
1.662
1.667
1.676
1.662
1.637
1.647
1.662
1.657
1.642
1.637
1.652
1.652
1.628
1.628
1.642
1.647
1.632
1.628
1.637
1.652
1.628
1.623
1.637
1.642
1.632
1.618
1.628
1.642
1.632
1.618
1.632
1.652
1.647
1.637
1.637
1.647
1.647
1.623
1.623
1.642
1.642
1.632
1.623
1.637
1.647
1.628
1.618
1.637
1.647
1.637
1.628
1.637
1.652
1.642
1.628
1.642
1.662
1.657
1.642
1.637
1.652
1.652
1.628
1.632
1.647
1.652
1.637
1.632
1.642
1.657
1.637
1.632
1.652
1.662
1.652
1.642
1.652
1.667
1.652
1.632
1.642
1.662
1.657
1.647
1.652
1.667
1.667
1.647
1.647
1.667
1.667
1.652
1.642
1.657
1.662
1.642
1.637
1.657
1.672
1.662
1.647
1.652
1.662
1.647
1.632
1.642
1.662
1.657
1.647
1.652
1.667
1.672
1.647
1.652
1.667
1.667
1.652
1.647
1.662
1.672
1.652
1.647
1.662
1.672
1.662
1.652
1.662
1.676
1.667
1.647
1.662
1.681
1.672
1.662
1.667
1.681
1.681
1.657
1.662
1.681
1.681
1.667
1.662
1.676
1.686
1.672
1.667
1.691
1.696
1.686
1.672
1.676
1.686
1.667
1.642
1.652
1.667
1.657
1.642
1.642
1.657
1.652
1.628
1.628
1.652
1.652
1.637
1.632
1.642
1.652
1.632
1.623
1.642
1.657
1.642
1.637
1.647
1.662
1.647
1.628
1.642
1.657
1.647
1.632
1.637
1.652
1.652
1.637
1.642
1.667
1.681
1.676
1.681
1.706
1.725
1.72
1.725
1.76
1.784
1.789
1.794
1.808
1.818
1.789
1.745
1.72
1.691
1.628
1.559
1.496
1.452
1.398
1.339
1.32
1.339
1.349
1.359
1.393
1.447
1.505
1.53
1.564
1.608
1.637
1.642
1.642
1.657
1.681
1.667
1.657
1.667
1.686
1.676
1.667
1.667
1.686
1.686
1.662
1.672
1.691
1.691
1.681
1.672
1.686
1.691
1.672
1.667
1.686
1.696
1.686
1.676
1.686
1.701
1.686
1.672
1.686
1.706
1.701
1.691
1.696
1.716
1.716
1.691
1.696
1.716
1.711
1.701
1.691
1.706
1.716
1.701
1.696
1.716
1.725
1.716
1.706
1.711
1.725
1.711
1.691
1.706
1.72
1.716
1.706
1.706
1.725
1.725
1.706
1.716
1.735
1.735
1.725
1.72
1.74
1.755
1.735
1.735
1.755
1.764
1.76
1.75
1.76
1.774
1.764
1.755
1.769
1.789
1.784
1.774
1.779
1.799
1.804
1.794
1.804
1.828
1.833
1.823
1.823
1.838
1.843
1.818
1.818
1.838
1.848
1.838
1.833
1.848
1.862
1.848
1.828
1.843
1.857
1.848
1.828
1.823
1.833
1.823
1.799
1.794
1.804
1.794
1.769
1.76
1.76
1.76
1.725
1.711
1.72
1.72
1.701
1.681
1.681
1.691
1.672
1.647
1.657
1.672
1.662
1.647
1.647
1.662
1.657
1.632
1.632
1.647
1.647
1.632
1.623
1.632
1.642
1.623
1.618
1.632
1.642
1.628
1.618
1.623
1.637
1.623
1.608
1.623
1.642
1.637
1.628
1.632
1.647
1.642
1.623
1.628
1.642
1.642
1.628
1.623
1.637
1.642
1.618
1.613
1.632
1.642
1.628
1.623
1.632
1.647
1.632
1.618
1.632
1.647
1.642
1.628
1.628
1.637
1.637
1.618
1.628
1.647
1.647
1.637
1.632
1.647
1.657
1.637
1.632
1.652
1.662
1.652
1.642
1.652
1.662
1.647
1.632
1.647
1.662
1.652
1.642
1.642
1.662
1.657
1.637
1.642
1.662
1.662
1.647
1.647
1.662
1.667
1.647
1.642
1.657
1.662
1.652
1.637
1.647
1.662
1.652
1.637
1.652
1.667
1.662
1.647
1.647
1.662
1.657
1.632
1.637
1.652
1.647
1.637
1.637
1.652
1.662
1.637
1.632
1.652
1.662
1.652
1.642
1.652
1.662
1.647
1.632
1.647
1.667
1.657
1.642
1.647
1.662
1.657
1.632
1.637
1.657
1.657
1.642
1.642
1.657
1.662
1.642
1.637
1.662
1.667
1.662
1.647
1.657
1.672
1.657
1.642
1.657
1.676
1.667
1.657
1.662
1.676
1.672
1.652
1.657
1.676
1.676
1.662
1.662
1.676
1.686
1.662
1.657
1.676
1.681
1.662
1.657
1.667
1.681
1.667
1.652
1.667
1.681
1.672
1.657
1.652
1.657
1.647
1.623
1.628
1.647
1.647
1.637
1.637
1.657
1.662
1.642
1.637
1.652
1.657
1.642
1.632
1.642
1.657
1.642
1.628
1.647
1.662
1.657
1.642
1.642
1.662
1.657
1.642
1.657
1.686
1.701
1.706
1.72
1.75
1.774
1.774
1.784
1.818
1.838
1.823
1.808
1.804
1.784
1.73
1.672
1.632
1.588
1.52
1.447
1.403
1.378
1.349
1.325
1.339
1.383
1.413
1.447
1.486
1.544
1.588
1.593
1.613
1.642
1.662
1.657
1.657
1.672
1.686
1.672
1.657
1.672
1.691
1.681
1.672
1.681
1.696
1.691
1.667
1.676
1.691
1.691
1.676
1.676
1.691
1.696
1.676
1.676
1.696
1.706
1.696
1.686
1.696
1.706
1.691
1.676
1.696
1.711
1.706
1.691
1.696
1.711
1.706
1.686
1.696
1.716
1.716
1.706
1.706
1.725
1.73
1.711
1.706
1.72
1.725
1.711
1.706
1.716
1.73
1.716
1.706
1.72
1.735
1.73
1.72
1.72
1.74
1.73
1.716
1.725
1.745
1.745
1.73
1.73
1.745
1.755
1.735
1.735
1.76
1.769
1.76
1.76
1.769
1.784
1.774
1.764
1.784
1.804
1.799
1.794
1.799
1.818
1.813
1.799
1.808
1.833
1.833
1.823
1.823
1.843
1.848
1.823
1.823
1.843
1.852
1.843
1.838
1.848
1.862
1.848
1.833
1.843
1.848
1.833
1.813
1.813
1.823
1.808
1.779
1.779
1.789
1.779
1.76
1.745
1.75
1.745
1.711
1.701
1.711
1.711
1.691
1.676
1.681
1.686
1.662
1.647
1.662
1.672
1.657
1.642
1.642
1.657
1.647
1.628
1.637
1.652
1.652
1.637
1.632
1.647
1.652
1.628
1.623
1.637
1.647
1.632
1.628
1.637
1.652
1.637
1.628
1.642
1.657
1.647
1.632
1.637
1.652
1.642
1.623
1.628
1.642
1.642
1.632
1.628
1.642
1.647
1.623
1.623
1.637
1.647
1.632
1.628
1.637
1.647
1.632
1.623
1.637
1.652
1.642
1.632
1.637
1.652
1.647
1.628
1.637
1.657
1.652
1.642
1.637
1.652
1.657
1.637
1.637
1.652
1.657
1.647
1.642
1.652
1.667
1.652
1.642
1.657
1.672
1.667
1.652
1.652
1.667
1.662
1.637
1.647
1.667
1.667
1.657
1.652
1.667
1.672
1.647
1.647
1.662
1.667
1.657
1.647
1.657
1.672
1.652
1.642
1.657
1.667
1.662
1.652
1.657
1.672
1.662
1.642
1.647
1.667
1.662
1.647
1.642
1.657
1.662
1.642
1.642
1.662
1.667
1.657
1.647
1.657
1.672
1.647
1.632
1.647
1.667
1.657
1.647
1.657
1.676
1.667
1.647
1.657
1.672
1.662
1.647
1.642
1.657
1.662
1.642
1.647
1.667
1.672
1.662
1.652
1.667
1.676
1.657
1.642
1.662
1.676
1.667
1.657
1.662
1.672
1.667
1.642
1.652
1.676
1.676
1.662
1.662
1.681
1.681
1.662
1.662
1.681
1.686
1.672
1.672
1.686
1.701
1.686
1.672
1.686
1.696
1.686
1.667
1.667
1.676
1.662
1.642
1.642
1.662
1.662
1.647
1.647
1.662
1.662
1.642
1.642
1.657
1.667
1.652
1.642
1.652
1.662
1.647
1.637
1.657
1.667
1.657
1.647
1.652
1.662
1.652
1.632
1.642
1.662
1.657
1.642
1.642
1.662
1.676
1.662
1.676
1.706
1.725
1.725
1.73
1.76
1.789
1.794
1.799
1.828
1.852
1.848
1.823
1.804
1.784
1.73
1.652
1.598
1.549
1.481
1.408
1.354
1.329
1.32
1.31
1.334
1.388
1.437
1.471
1.515
1.569
1.613
1.613
1.618
1.647
1.667
1.662
1.657
1.672
1.696
1.691
1.672
1.676
1.696
1.686
1.676
1.676
1.691
1.696
1.676
1.676
1.696
1.701
1.691
1.686
1.701
1.716
1.696
1.686
1.701
1.711
1.701
1.691
1.696
1.711
1.701
1.681
1.696
1.716
1.711
1.696
1.696
1.711
1.711
1.686
1.691
1.716
1.725
1.716
1.711
1.725
1.735
1.711
1.701
1.72
1.73
1.725
1.711
1.72
1.74
1.73
1.716
1.725
1.74
1.74
1.725
1.725
1.74
1.745
1.725
1.73
1.75
1.75
1.74
1.74
1.755
1.769
1.755
1.75
1.769
1.784
1.774
1.764
1.774
1.789
1.784
1.769
1.784
1.804
1.804
1.799
1.804
1.823
1.828
1.813
1.818
1.843
1.852
1.838
1.833
1.843
1.857
1.838
1.833
1.857
1.867
1.862
1.852
1.857
1.867
1.857
1.833
1.838
1.852
1.848
1.833
1.823
1.838
1.828
1.794
1.784
1.794
1.789
1.764
1.745
1.75
1.755
1.725
1.706
1.716
1.725
1.706
1.686
1.686
1.696
1.681
1.657
1.662
1.672
1.667
1.647
1.647
1.662
1.662
1.637
1.637
1.657
1.662
1.642
1.632
1.642
1.657
1.637
1.628
1.642
1.657
1.642
1.628
1.632
1.647
1.637
1.618
1.628
1.647
1.647
1.637
1.637
1.657
1.657
1.632
1.637
1.652
1.657
1.642
1.632
1.647
1.657
1.637
1.623
1.637
1.652
1.647
1.642
1.652
1.667
1.657
1.637
1.647
1.667
1.657
1.642
1.637
1.657
1.657
1.632
1.632
1.657
1.662
1.647
1.637
1.652
1.662
1.642
1.637
1.657
1.667
1.662
1.652
1.662
1.676
1.667
1.647
1.657
1.672
1.662
1.647
1.647
1.662
1.667
1.642
1.647
1.667
1.672
1.662
1.657
1.667
1.676
1.652
1.642
1.662
1.672
1.667
1.652
1.662
1.676
1.667
1.647
1.657
1.672
1.667
1.652
1.652
1.667
1.662
1.637
1.642
1.662
1.667
1.652
1.652
1.662
1.676
1.662
1.647
1.662
1.672
1.662
1.647
1.657
1.667
1.657
1.637
1.647
1.667
1.667
1.657
1.657
1.672
1.672
1.647
1.647
1.662
1.667
1.652
1.642
1.657
1.662
1.647
1.642
1.662
1.672
1.667
1.657
1.667
1.681
1.667
1.647
1.657
1.676
1.672
1.657
1.657
1.676
1.672
1.652
1.652
1.672
1.672
1.662
1.652
1.667
1.676
1.662
1.657
1.676
1.691
1.681
1.672
1.676
1.691
1.676
1.657
1.672
1.691
1.691
1.686
1.691
1.706
1.711
1.686
1.686
1.701
1.701
1.681
1.672
1.676
1.681
1.657
1.647
1.662
1.672
1.662
1.647
1.652
1.667
1.652
1.632
1.642
1.662
1.657
1.647
1.652
1.672
1.672
1.652
1.657
1.672
1.676
1.657
1.647
1.657
1.667
1.642
1.637
1.657
1.672
1.662
1.652
1.662
1.681
1.676
1.667
1.691
1.725
1.735
1.745
1.764
1.799
1.818
1.808
1.823
1.852
1.852
1.828
1.799
1.774
1.735
1.657
1.584
1.535
1.476
1.403
1.344
1.325
1.329
1.325
1.334
1.383
1.447
1.496
1.535
1.574
1.623
1.642
1.637
1.647
1.676
1.686
1.676
1.676
1.686
1.701
1.681
1.676
1.691
1.701
1.691
1.686
1.696
1.716
1.701
1.686
1.696
1.711
1.706
1.696
1.696
1.711
1.711
1.691
1.691
1.711
1.716
1.701
1.696
1.711
1.72
1.701
1.696
1.711
1.725
1.716
1.706
1.716
1.725
1.716
1.701
1.716
1.73
1.725
1.711
1.711
1.725
1.725
1.706
1.711
1.73
1.735
1.72
1.72
1.735
1.745
1.725
1.72
1.74
1.75
1.74
1.735
1.745
1.76
1.75
1.73
1.745
1.764
1.764
1.755
1.755
1.774
1.774
1.755
1.755
1.779
1.784
1.774
1.774
1.794
1.808
1.794
1.794
1.813
1.828
1.818
1.813
1.823
1.843
1.838
1.823
1.843
1.862
1.862
1.852
1.852
1.872
1.867
1.848
1.848
1.867
1.872
1.857
1.852
1.862
1.867
1.843
1.833
1.848
1.857
1.843
1.828
1.828
1.838
1.818
1.789
1.794
1.799
1.784
1.76
1.75
1.755
1.75
1.72
1.716
1.72
1.716
1.696
1.681
1.686
1.686
1.657
1.642
1.657
1.672
1.657
1.647
1.657
1.667
1.652
1.637
1.642
1.657
1.647
1.632
1.637
1.652
1.652
1.632
1.637
1.657
1.662
1.647
1.642
1.657
1.667
1.642
1.637
1.652
1.662
1.647
1.637
1.642
1.657
1.642
1.623
1.632
1.647
1.642
1.637
1.642
1.662
1.662
1.642
1.647
1.667
1.672
1.652
1.642
1.652
1.662
1.642
1.637
1.657
1.667
1.657
1.647
1.652
1.667
1.652
1.637
1.652
1.672
1.667
1.652
1.657
1.667
1.667
1.642
1.647
1.667
1.667
1.652
1.652
1.667
1.676
1.657
1.647
1.672
1.681
1.672
1.662
1.672
1.681
1.667
1.652
1.662
1.676
1.672
1.657
1.657
1.676
1.676
1.652
1.652
1.672
1.676
1.662
1.662
1.676
1.681
1.662
1.652
1.672
1.681
1.667
1.652
1.662
1.676
1.667
1.652
1.667
1.686
1.681
1.667
1.667
1.681
1.676
1.652
1.652
1.676
1.676
1.667
1.662
1.676
1.686
1.662
1.647
1.662
1.672
1.662
1.652
1.662
1.681
1.672
1.657
1.672
1.691
1.686
1.672
1.672
1.686
1.686
1.662
1.667
1.681
1.686
1.672
1.667
1.676
1.691
1.672
1.667
1.686
1.696
1.686
1.676
1.686
1.701
1.691
1.672
1.691
1.711
1.706
1.696
1.696
1.711
1.706
1.681
1.676
1.691
1.686
1.672
1.662
1.676
1.681
1.657
1.647
1.662
1.672
1.657
1.647
1.652
1.667
1.657
1.647
1.662
1.676
1.676
1.667
1.667
1.681
1.676
1.652
1.657
1.672
1.672
1.662
1.657
1.667
1.676
1.652
1.647
1.667
1.676
1.672
1.667
1.686
1.711
1.706
1.701
1.725
1.76
1.769
1.779
1.799
1.833
1.843
1.823
1.823
1.823
1.799
1.745
1.686
1.647
1.598
1.515
1.447
1.413
1.388
1.354
1.339
1.359
1.393
1.417
1.442
1.5
1.564
1.598
1.618
1.642
1.672
1.676
1.662
1.672
1.696
1.701
1.691
1.686
1.701
1.706
1.686
1.676
1.701
1.711
1.701
1.696
1.706
1.72
1.706
1.691
1.706
1.72
1.711
1.701
1.701
1.716
1.716
1.691
1.696
1.716
1.72
1.706
1.706
1.72
1.73
1.711
1.701
1.72
1.73
1.72
1.711
1.72
1.735
1.72
1.706
1.72
1.735
1.73
1.72
1.725
1.74
1.74
1.716
1.725
1.745
1.745
1.73
1.73
1.745
1.755
1.735
1.73
1.75
1.76
1.75
1.74
1.75
1.769
1.755
1.74
1.76
1.779
1.774
1.764
1.769
1.784
1.784
1.764
1.774
1.794
1.799
1.789
1.789
1.808
1.823
1.808
1.808
1.828
1.843
1.838
1.833
1.848
1.862
1.848
1.838
1.852
1.872
1.867
1.857
1.862
1.882
1.877
1.862
1.862
1.882
1.882
1.867
1.857
1.867
1.872
1.848
1.833
1.843
1.843
1.823
1.804
1.804
1.804
1.784
1.76
1.764
1.774
1.755
1.735
1.73
1.735
1.72
1.691
1.686
1.701
1.691
1.672
1.662
1.672
1.676
1.652
1.647
1.662
1.667
1.657
1.642
1.652
1.662
1.647
1.632
1.647
1.667
1.657
1.647
1.647
1.662
1.662
1.637
1.642
1.662
1.662
1.642
1.632
1.647
1.652
1.628
1.623
1.642
1.657
1.647
1.637
1.647
1.662
1.647
1.632
1.642
1.657
1.647
1.637
1.642
1.657
1.652
1.632
1.637
1.662
1.662
1.647
1.642
1.657
1.662
1.642
1.637
1.657
1.662
1.657
1.642
1.657
1.672
1.657
1.642
1.657
1.672
1.662
1.652
1.652
1.667
1.662
1.642
1.647
1.672
1.672
1.662
1.657
1.672
1.676
1.657
1.647
1.667
1.676
1.662
1.652
1.662
1.676
1.662
1.647
1.662
1.676
1.672
1.657
1.662
1.681
1.676
1.657
1.662
1.681
1.681
1.672
1.667
1.676
1.681
1.657
1.652
1.672
1.681
1.667
1.657
1.662
1.672
1.657
1.637
1.652
1.667
1.667
1.652
1.662
1.676
1.676
1.657
1.662
1.681
1.681
1.667
1.662
1.676
1.681
1.657
1.652
1.672
1.681
1.672
1.657
1.667
1.681
1.672
1.657
1.676
1.691
1.681
1.672
1.672
1.686
1.681
1.657
1.667
1.691
1.691
1.681
1.681
1.691
1.701
1.676
1.667
1.676
1.681
1.667
1.652
1.657
1.667
1.652
1.637
1.647
1.667
1.657
1.647
1.647
1.662
1.662
1.637
1.637
1.657
1.657
1.642
1.642
1.657
1.662
1.642
1.642
1.657
1.672
1.662
1.647
1.652
1.667
1.652
1.632
1.647
1.662
1.662
1.657
1.667
1.691
1.701
1.686
1.706
1.74
1.755
1.76
1.774
1.804
1.823
1.813
1.808
1.813
1.799
1.755
1.701
1.652
1.613
1.54
1.461
1.422
1.393
1.359
1.339
1.349
1.383
1.408
1.427
1.471
1.535
1.574
1.593
1.608
1.637
1.657
1.647
1.652
1.676
1.691
1.681
1.672
1.681
1.696
1.676
1.662
1.672
1.691
1.686
1.672
1.676
1.686
1.686
1.667
1.676
1.696
1.701
1.696
1.696
1.711
1.716
1.691
1.686
1.701
1.711
1.696
1.691
1.701
1.716
1.701
1.686
1.701
1.716
1.711
1.696
1.701
1.716
1.711
1.691
1.696
1.716
1.716
1.706
1.701
1.716
1.725
1.706
1.701
1.725
1.73
1.72
1.711
1.72
1.735
1.72
1.706
1.725
1.745
1.74
1.73
1.73
1.745
1.74
1.72
1.725
1.75
1.75
1.74
1.74
1.76
1.774
1.755
1.755
1.774
1.789
1.779
1.774
1.784
1.804
1.794
1.784
1.804
1.823
1.823
1.813
1.823
1.838
1.838
1.813
1.823
1.848
1.852
1.843
1.843
1.862
1.872
1.848
1.843
1.862
1.867
1.852
1.838
1.843
1.852
1.833
1.813
1.818
1.828
1.808
1.784
1.779
1.789
1.774
1.74
1.74
1.75
1.74
1.716
1.706
1.711
1.706
1.676
1.662
1.676
1.676
1.662
1.647
1.652
1.662
1.642
1.628
1.642
1.657
1.647
1.637
1.642
1.652
1.647
1.623
1.632
1.647
1.647
1.628
1.623
1.637
1.642
1.613
1.608
1.628
1.632
1.623
1.618
1.632
1.642
1.628
1.618
1.632
1.652
1.642
1.628
1.628
1.642
1.632
1.613
1.618
1.642
1.637
1.623
1.623
1.637
1.642
1.623
1.623
1.637
1.647
1.632
1.623
1.632
1.642
1.628
1.613
1.628
1.647
1.642
1.628
1.632
1.647
1.647
1.628
1.632
1.652
1.652
1.642
1.642
1.652
1.657
1.632
1.632
1.652
1.662
1.652
1.642
1.652
1.667
1.652
1.637
1.647
1.657
1.647
1.632
1.632
1.652
1.647
1.632
1.642
1.662
1.667
1.652
1.652
1.662
1.667
1.642
1.632
1.652
1.662
1.652
1.642
1.652
1.662
1.647
1.637
1.652
1.667
1.662
1.647
1.647
1.662
1.652
1.632
1.637
1.657
1.657
1.647
1.647
1.662
1.667
1.642
1.637
1.652
1.657
1.642
1.628
1.637
1.652
1.642
1.628
1.647
1.667
1.657
1.647
1.647
1.662
1.657
1.632
1.637
1.652
1.652
1.642
1.642
1.657
1.667
1.642
1.642
1.662
1.667
1.657
1.647
1.657
1.667
1.652
1.637
1.652
1.672
1.667
1.652
1.662
1.681
1.672
1.647
1.657
1.672
1.672
1.657
1.657
1.667
1.676
1.652
1.652
1.672
1.686
1.676
1.672
1.681
1.696
1.676
1.662
1.667
1.672
1.657
1.637
1.637
1.652
1.647
1.628
1.637
1.657
1.657
1.642
1.632
1.642
1.647
1.628
1.628
1.647
1.657
1.647
1.642
1.652
1.667
1.647
1.628
1.642
1.652
1.642
1.632
1.637
1.657
1.652
1.632
1.642
1.667
1.667
1.662
1.667
1.696
1.711
1.701
1.716
1.75
1.779
1.784
1.794
1.818
1.843
1.828
1.804
1.794
1.774
1.72
1.652
1.598
1.554
1.481
1.398
1.359
1.344
1.329
1.325
1.339
1.388
1.437
1.461
1.5
1.559
1.598
1.608
1.618
1.637
1.662
1.652
1.647
1.667
1.691
1.691
1.676
1.681
1.691
1.686
1.662
1.672
1.691
1.691
1.676
1.676
1.686
1.691
1.672
1.672
1.691
1.696
1.686
1.681
1.696
1.711
1.696
1.681
1.696
1.711
1.701
1.691
1.696
1.711
1.706
1.686
1.696
1.711
1.711
1.696
1.696
1.706
1.716
1.691
1.686
1.706
1.716
1.706
1.696
1.706
1.72
1.701
1.686
1.706
1.72
1.716
1.706
1.711
1.725
1.725
1.701
1.711
1.73
1.735
1.725
1.725
1.745
1.755
1.73
1.73
1.75
1.76
1.75
1.74
1.755
1.774
1.76
1.75
1.769
1.784
1.779
1.774
1.784
1.799
1.804
1.784
1.799
1.823
1.823
1.813
1.813
1.833
1.838
1.818
1.818
1.838
1.852
1.843
1.833
1.848
1.862
1.843
1.828
1.843
1.857
1.848
1.833
1.833
1.848
1.838
1.808
1.808
1.823
1.813
1.789
1.779
1.784
1.779
1.745
1.735
1.745
1.74
1.72
1.701
1.701
1.706
1.681
1.662
1.672
1.681
1.662
1.647
1.652
1.667
1.657
1.637
1.642
1.662
1.657
1.642
1.637
1.642
1.642
1.623
1.618
1.637
1.647
1.632
1.628
1.637
1.652
1.632
1.618
1.632
1.647
1.637
1.628
1.628
1.647
1.642
1.618
1.623
1.642
1.642
1.628
1.628
1.637
1.642
1.618
1.618
1.642
1.642
1.632
1.623
1.632
1.647
1.632
1.618
1.637
1.652
1.647
1.637
1.642
1.657
1.647
1.628
1.632
1.647
1.647
1.637
1.632
1.652
1.652
1.632
1.628
1.647
1.657
1.647
1.642
1.652
1.662
1.647
1.632
1.647
1.662
1.652
1.637
1.642
1.657
1.652
1.637
1.642
1.662
1.662
1.647
1.642
1.657
1.662
1.637
1.632
1.652
1.662
1.652
1.642
1.657
1.672
1.652
1.637
1.652
1.667
1.657
1.642
1.647
1.662
1.657
1.637
1.642
1.662
1.662
1.647
1.642
1.657
1.662
1.637
1.637
1.657
1.667
1.657
1.647
1.657
1.672
1.652
1.637
1.647
1.662
1.652
1.637
1.642
1.657
1.657
1.642
1.647
1.667
1.662
1.652
1.647
1.662
1.662
1.637
1.632
1.652
1.662
1.647
1.637
1.647
1.657
1.642
1.632
1.647
1.667
1.662
1.647
1.652
1.667
1.662
1.637
1.642
1.657
1.657
1.647
1.652
1.667
1.672
1.647
1.642
1.662
1.672
1.657
1.652
1.662
1.676
1.662
1.647
1.667
1.676
1.672
1.662
1.667
1.681
1.676
1.657
1.662
1.681
1.676
1.667
1.667
1.686
1.691
1.667
1.662
1.686
1.696
1.681
1.667
1.672
1.681
1.657
1.637
1.647
1.652
1.642
1.632
1.637
1.657
1.652
1.637
1.647
1.662
1.662
1.642
1.637
1.652
1.652
1.632
1.632
1.652
1.662
1.647
1.642
1.652
1.662
1.647
1.632
1.647
1.662
1.652
1.642
1.647
1.667
1.667
1.657
1.676
1.711
1.73
1.735
1.76
1.794
1.818
1.813
1.828
1.852
1.852
1.823
1.789
1.76
1.725
1.652
1.579
1.525
1.471
1.403
1.339
1.315
1.325
1.325
1.329
1.373
1.442
1.486
1.525
1.564
1.608
1.632
1.623
1.632
1.657
1.672
1.667
1.662
1.681
1.691
1.676
1.662
1.676
1.691
1.681
1.672
1.676
1.696
1.686
1.667
1.676
1.696
1.691
1.681
1.681
1.701
1.706
1.681
1.681
1.701
1.706
1.691
1.686
1.696
1.711
1.696
1.681
1.701
1.716
1.711
1.701
1.711
1.725
1.716
1.696
1.701
1.72
1.716
1.701
1.696
1.711
1.711
1.691
1.696
1.72
1.725
1.72
1.711
1.72
1.73
1.711
1.696
1.716
1.73
1.725
1.72
1.73
1.75
1.745
1.725
1.735
1.755
1.75
1.735
1.735
1.755
1.76
1.745
1.745
1.764
1.774
1.764
1.76
1.774
1.794
1.779
1.774
1.799
1.818
1.813
1.808
1.818
1.838
1.833
1.813
1.828
1.848
1.848
1.833
1.833
1.852
1.857
1.838
1.838
1.857
1.867
1.857
1.852
1.867
1.877
1.852
1.838
1.848
1.852
1.838
1.813
1.808
1.813
1.799
1.769
1.769
1.779
1.769
1.75
1.74
1.745
1.74
1.706
1.696
1.706
1.701
1.681
1.667
1.672
1.681
1.657
1.642
1.652
1.667
1.657
1.642
1.642
1.657
1.647
1.628
1.637
1.652
1.647
1.637
1.632
1.647
1.647
1.623
1.623
1.642
1.647
1.632
1.628
1.637
1.652
1.632
1.618
1.637
1.652
1.642
1.632
1.637
1.657
1.647
1.623
1.632
1.647
1.637
1.628
1.628
1.642
1.647
1.623
1.623
1.642
1.642
1.632
1.628
1.642
1.652
1.637
1.623
1.642
1.657
1.647
1.637
1.642
1.657
1.647
1.628
1.642
1.657
1.657
1.642
1.637
1.652
1.657
1.632
1.632
1.652
1.657
1.647
1.637
1.652
1.662
1.647
1.637
1.652
1.667
1.657
1.642
1.647
1.667
1.657
1.637
1.647
1.662
1.667
1.652
1.652
1.667
1.672
1.647
1.647
1.667
1.667
1.652
1.642
1.652
1.662
1.637
1.632
1.652
1.667
1.662
1.652
1.662
1.681
1.672
1.652
1.657
1.672
1.667
1.652
1.647
1.662
1.667
1.642
1.647
1.667
1.667
1.657
1.642
1.657
1.667
1.652
1.637
1.652
1.667
1.657
1.647
1.652
1.667
1.662
1.637
1.647
1.662
1.657
1.647
1.647
1.662
1.662
1.642
1.642
1.662
1.667
1.657
1.647
1.657
1.667
1.647
1.632
1.652
1.662
1.652
1.642
1.647
1.667
1.657
1.642
1.647
1.667
1.662
1.647
1.647
1.662
1.667
1.642
1.642
1.662
1.667
1.652
1.647
1.662
1.676
1.662
1.652
1.672
1.691
1.676
1.662
1.667
1.676
1.667
1.647
1.657
1.681
1.686
1.676
1.672
1.691
1.691
1.662
1.667
1.686
1.696
1.686
1.681
1.696
1.706
1.686
1.672
1.681
1.691
1.676
1.657
1.662
1.672
1.662
1.642
1.652
1.667
1.662
1.647
1.642
1.662
1.662
1.642
1.642
1.662
1.667
1.652
1.647
1.652
1.662
1.642
1.632
1.647
1.662
1.652
1.642
1.647
1.667
1.662
1.642
1.652
1.667
1.662
1.652
1.662
1.691
1.701
1.691
1.706
1.745
1.769
1.779
1.794
1.823
1.852
1.843
1.838
1.848
1.843
1.804
1.75
1.706
1.662
1.588
1.5
1.447
1.408
1.359
1.32
1.315
1.344
1.373
1.388
1.437
1.505
1.559
1.588
1.608
1.642
1.667
1.657
1.652
1.681
1.696
1.696
1.686
1.696
1.706
1.701
1.676
1.686
1.706
1.701
1.691
1.691
1.706
1.711
1.686
1.691
1.711
1.716
1.706
1.696
1.706
1.716
1.701
1.691
1.706
1.72
1.711
1.701
1.711
1.725
1.716
1.701
1.711
1.73
1.725
1.716
1.716
1.73
1.725
1.706
1.706
1.725
1.73
1.72
1.72
1.735
1.745
1.725
1.716
1.73
1.74
1.73
1.72
1.73
1.745
1.74
1.725
1.735
1.75
1.75
1.735
1.735
1.755
1.76
1.74
1.74
1.76
1.764
1.755
1.755
1.769
1.784
1.769
1.76
1.784
1.799
1.794
1.789
1.799
1.813
1.808
1.794
1.808
1.828
1.833
1.818
1.823
1.843
1.848
1.828
1.828
1.852
1.857
1.852
1.848
1.862
1.877
1.862
1.852
1.872
1.882
1.872
1.857
1.857
1.872
1.857
1.833
1.838
1.852
1.843
1.818
1.813
1.818
1.808
1.774
1.764
1.774
1.769
1.75
1.735
1.74
1.74
1.716
1.696
1.706
1.711
1.691
1.672
1.676
1.686
1.676
1.652
1.662
1.676
1.672
1.657
1.652
1.667
1.667
1.642
1.642
1.657
1.662
1.647
1.642
1.652
1.662
1.642
1.632
1.647
1.662
1.652
1.637
1.642
1.657
1.647
1.628
1.642
1.662
1.662
1.647
1.647
1.662
1.662
1.642
1.642
1.657
1.657
1.647
1.637
1.652
1.662
1.642
1.632
1.647
1.662
1.652
1.647
1.657
1.672
1.662
1.647
1.657
1.672
1.667
1.652
1.647
1.662
1.662
1.637
1.642
1.667
1.672
1.662
1.657
1.667
1.676
1.657
1.647
1.662
1.676
1.667
1.652
1.662
1.681
1.672
1.652
1.662
1.676
1.672
1.657
1.662
1.676
1.676
1.657
1.662
1.681
1.686
1.667
1.662
1.667
1.676
1.652
1.647
1.667
1.681
1.672
1.662
1.672
1.686
1.672
1.652
1.657
1.676
1.667
1.657
1.657
1.672
1.672
1.652
1.657
1.676
1.681
1.667
1.657
1.672
1.676
1.657
1.652
1.672
1.681
1.672
1.662
1.667
1.681
1.672
1.647
1.657
1.676
1.672
1.657
1.662
1.676
1.676
1.657
1.657
1.676
1.681
1.667
1.662
1.672
1.681
1.662
1.657
1.672
1.681
1.672
1.662
1.667
1.681
1.676
1.657
1.672
1.691
1.691
1.676
1.676
1.691
1.691
1.667
1.667
1.686
1.691
1.681
1.676
1.691
1.706
1.691
1.681
1.701
1.711
1.706
1.686
1.691
1.701
1.681
1.657
1.662
1.672
1.667
1.652
1.652
1.667
1.672
1.647
1.652
1.672
1.672
1.662
1.652
1.667
1.672
1.652
1.642
1.662
1.672
1.657
1.642
1.652
1.667
1.662
1.642
1.657
1.676
1.672
1.662
1.662
1.676
1.681
1.662
1.672
1.701
1.716
1.716
1.725
1.755
1.779
1.774
1.779
1.813
1.838
1.833
1.823
1.813
1.804
1.755
1.691
1.647
1.608
1.54
1.466
1.413
1.388
1.364
1.334
1.344
1.383
1.413
1.442
1.481
1.544
1.598
1.613
1.628
1.662
1.686
1.686
1.681
1.696
1.711
1.706
1.686
1.691
1.711
1.706
1.691
1.691
1.711
1.716
1.691
1.691
1.711
1.716
1.701
1.691
1.706
1.72
1.701
1.696
1.716
1.73
1.72
1.706
1.711
1.725
1.716
1.696
1.711
1.725
1.725
1.716
1.72
1.735
1.735
1.711
1.711
1.73
1.73
1.72
1.716
1.725
1.735
1.716
1.711
1.725
1.74
1.73
1.72
1.735
1.75
1.74
1.725
1.735
1.75
1.745
1.735
1.735
1.755
1.755
1.735
1.74
1.76
1.769
1.755
1.755
1.764
1.779
1.764
1.76
1.779
1.794
1.789
1.784
1.794
1.813
1.804
1.789
1.804
1.828
1.828
1.818
1.823
1.843
1.848
1.828
1.828
1.852
1.857
1.843
1.843
1.862
1.877
1.862
1.857
1.877
1.891
1.882
1.867
1.872
1.882
1.872
1.848
1.857
1.872
1.867
1.848
1.843
1.848
1.838
1.804
1.799
1.804
1.799
1.774
1.764
1.769
1.769
1.74
1.725
1.73
1.735
1.711
1.691
1.691
1.696
1.681
1.657
1.667
1.681
1.676
1.662
1.662
1.672
1.672
1.647
1.647
1.667
1.667
1.652
1.647
1.657
1.667
1.647
1.632
1.647
1.662
1.652
1.642
1.647
1.662
1.647
1.628
1.642
1.657
1.652
1.637
1.642
1.657
1.657
1.637
1.637
1.662
1.662
1.647
1.637
1.647
1.657
1.632
1.628
1.647
1.662
1.652
1.642
1.647
1.667
1.652
1.637
1.647
1.667
1.657
1.642
1.647
1.662
1.657
1.637
1.642
1.662
1.662
1.652
1.642
1.657
1.667
1.652
1.642
1.662
1.672
1.662
1.652
1.662
1.681
1.672
1.652
1.662
1.676
1.672
1.657
1.657
1.676
1.672
1.647
1.652
1.672
1.676
1.662
1.652
1.667
1.672
1.652
1.647
1.667
1.676
1.672
1.662
1.667
1.681
1.667
1.647
1.657
1.672
1.667
1.657
1.657
1.672
1.667
1.647
1.647
1.667
1.672
1.657
1.652
1.667
1.681
1.662
1.652
1.667
1.676
1.667
1.652
1.662
1.676
1.667
1.647
1.657
1.676
1.676
1.662
1.667
1.681
1.676
1.652
1.652
1.667
1.672
1.657
1.652
1.672
1.681
1.662
1.657
1.681
1.696
1.686
1.672
1.681
1.696
1.681
1.662
1.676
1.696
1.691
1.681
1.686
1.701
1.701
1.676
1.676
1.691
1.686
1.667
1.657
1.667
1.667
1.647
1.637
1.652
1.662
1.652
1.642
1.652
1.667
1.657
1.642
1.657
1.667
1.657
1.637
1.637
1.652
1.657
1.632
1.642
1.662
1.667
1.657
1.652
1.662
1.667
1.647
1.637
1.652
1.662
1.652
1.647
1.667
1.686
1.686
1.681
1.706
1.74
1.75
1.755
1.774
1.804
1.813
1.804
1.808
1.818
1.799
1.755
1.711
1.676
1.628
1.549
1.486
1.447
1.408
1.369
1.344
1.354
1.383
1.398
1.417
1.471
1.53
1.564
1.584
1.608
1.642
1.652
1.642
1.657
1.681
1.691
1.681
1.681
1.691
1.701
1.676
1.667
1.681
1.691
1.676
1.667
1.676
1.691
1.681
1.667
1.686
1.706
1.706
1.691
1.696
1.711
1.711
1.681
1.686
1.706
1.706
1.691
1.686
1.701
1.711
1.691
1.686
1.701
1.711
1.701
1.696
1.706
1.72
1.706
1.691
1.706
1.72
1.716
1.701
1.706
1.72
1.72
1.701
1.706
1.725
1.73
1.716
1.711
1.72
1.73
1.711
1.706
1.725
1.74
1.73
1.72
1.73
1.745
1.73
1.716
1.73
1.75
1.745
1.735
1.74
1.76
1.764
1.745
1.755
1.779
1.784
1.774
1.774
1.794
1.804
1.789
1.789
1.808
1.823
1.818
1.808
1.823
1.838
1.828
1.813
1.828
1.848
1.848
1.838
1.843
1.857
1.857
1.838
1.843
1.862
1.862
1.852
1.843
1.852
1.857
1.833
1.813
1.823
1.823
1.804
1.789
1.789
1.794
1.769
1.745
1.745
1.755
1.74
1.716
1.711
1.72
1.706
1.676
1.676
1.686
1.681
1.662
1.652
1.662
1.667
1.642
1.637
1.652
1.657
1.647
1.632
1.642
1.652
1.637
1.623
1.632
1.647
1.637
1.623
1.623
1.642
1.642
1.623
1.628
1.647
1.647
1.632
1.628
1.642
1.642
1.618
1.608
1.628
1.637
1.628
1.623
1.632
1.647
1.632
1.613
1.628
1.642
1.637
1.623
1.623
1.642
1.642
1.618
1.623
1.642
1.647
1.632
1.628
1.642
1.647
1.632
1.628
1.642
1.652
1.642
1.632
1.642
1.652
1.637
1.623
1.637
1.657
1.652
1.637
1.642
1.657
1.652
1.632
1.637
1.657
1.657
1.642
1.642
1.652
1.657
1.637
1.632
1.657
1.667
1.657
1.647
1.657
1.667
1.657
1.642
1.652
1.667
1.662
1.652
1.652
1.672
1.672
1.647
1.652
1.667
1.662
1.647
1.642
1.657
1.667
1.642
1.637
1.657
1.667
1.652
1.642
1.652
1.667
1.652
1.637
1.647
1.662
1.657
1.642
1.647
1.662
1.662
1.637
1.642
1.667
1.662
1.652
1.642
1.657
1.662
1.642
1.632
1.652
1.662
1.647
1.637
1.642
1.662
1.647
1.637
1.647
1.667
1.662
1.652
1.662
1.676
1.676
1.652
1.657
1.672
1.672
1.657
1.657
1.672
1.681
1.657
1.652
1.672
1.676
1.667
1.652
1.662
1.676
1.667
1.652
1.667
1.686
1.681
1.672
1.672
1.691
1.686
1.662
1.662
1.676
1.672
1.652
1.642
1.652
1.657
1.637
1.632
1.652
1.657
1.647
1.637
1.642
1.657
1.647
1.628
1.642
1.657
1.652
1.637
1.637
1.652
1.652
1.632
1.637
1.662
1.662
1.647
1.647
1.657
1.667
1.637
1.632
1.647
1.657
1.652
1.647
1.667
1.691
1.691
1.691
1.72
1.76
1.769
1.774
1.794
1.818
1.823
1.808
1.804
1.804
1.774
1.72
1.667
1.623
1.569
1.486
1.422
1.388
1.364
1.334
1.325
1.349
1.398
1.427
1.457
1.515
1.579
1.603
1.618
1.637
1.662
1.662
1.647
1.657
1.681
1.686
1.676
1.676
1.691
1.691
1.662
1.662
1.681
1.691
1.676
1.672
1.681
1.696
1.686
1.672
1.686
1.701
1.696
1.681
1.686
1.701
1.701
1.681
1.686
1.706
1.701
1.686
1.686
1.701
1.706
1.686
1.686
1.706
1.716
1.701
1.696
1.701
1.716
1.701
1.686
1.701
1.716
1.711
1.696
1.701
1.716
1.716
1.696
1.701
1.72
1.725
1.711
1.711
1.725
1.735
1.711
1.706
1.725
1.73
1.72
1.716
1.73
1.75
1.74
1.725
1.745
1.76
1.755
1.74
1.745
1.76
1.76
1.74
1.755
1.779
1.784
1.774
1.774
1.789
1.799
1.774
1.774
1.804
1.813
1.808
1.804
1.818
1.838
1.823
1.813
1.828
1.848
1.843
1.828
1.838
1.852
1.852
1.828
1.838
1.852
1.848
1.833
1.828
1.838
1.843
1.818
1.808
1.823
1.823
1.808
1.789
1.789
1.789
1.76
1.735
1.74
1.745
1.73
1.711
1.706
1.716
1.706
1.676
1.676
1.686
1.681
1.657
1.647
1.657
1.662
1.642
1.637
1.657
1.662
1.647
1.637
1.652
1.662
1.647
1.628
1.642
1.652
1.647
1.632
1.632
1.647
1.637
1.613
1.623
1.642
1.642
1.628
1.623
1.632
1.637
1.613
1.608
1.628
1.637
1.628
1.623
1.637
1.652
1.642
1.628
1.637
1.652
1.647
1.637
1.637
1.652
1.642
1.623
1.628
1.642
1.642
1.628
1.628
1.642
1.647
1.632
1.628
1.647
1.652
1.642
1.632
1.642
1.657
1.642
1.628
1.642
1.657
1.647
1.637
1.642
1.657
1.652
1.632
1.637
1.657
1.657
1.647
1.642
1.657
1.662
1.642
1.642
1.667
1.676
1.662
1.652
1.657
1.672
1.652
1.637
1.652
1.667
1.657
1.642
1.647
1.662
1.657
1.637
1.642
1.662
1.662
1.647
1.642
1.657
1.662
1.642
1.642
1.662
1.672
1.657
1.647
1.657
1.667
1.647
1.632
1.647
1.662
1.657
1.647
1.652
1.667
1.662
1.637
1.647
1.662
1.662
1.647
1.647
1.662
1.672
1.647
1.647
1.667
1.672
1.657
1.647
1.652
1.667
1.647
1.637
1.652
1.662
1.657
1.642
1.647
1.662
1.652
1.632
1.637
1.657
1.657
1.647
1.647
1.657
1.657
1.637
1.632
1.652
1.662
1.647
1.642
1.652
1.672
1.657
1.647
1.662
1.676
1.662
1.647
1.652
1.667
1.662
1.642
1.657
1.676
1.676
1.667
1.667
1.681
1.681
1.662
1.657
1.676
1.681
1.672
1.662
1.676
1.691
1.676
1.667
1.686
1.696
1.686
1.676
1.676
1.691
1.676
1.652
1.657
1.667
1.662
1.647
1.642
1.657
1.657
1.637
1.632
1.652
1.652
1.642
1.637
1.647
1.657
1.642
1.628
1.642
1.652
1.642
1.628
1.637
1.657
1.652
1.637
1.647
1.667
1.662
1.647
1.642
1.657
1.657
1.637
1.637
1.662
1.681
1.681
1.686
1.711
1.74
1.74
1.75
1.784
1.818
1.828
1.828
1.838
1.848
1.823
1.774
1.74
1.711
1.652
1.579
1.51
1.461
1.408
1.349
1.32
1.329
1.349
1.359
1.388
1.442
1.505
1.53
1.554
1.603
1.637
1.642
1.637
1.647
1.672
1.667
1.657
1.672
1.691
1.691
1.676
1.672
1.686
1.691
1.667
1.662
1.686
1.691
1.681
1.676
1.691
1.701
1.686
1.672
1.686
1.701
1.691
1.681
1.691
1.716
1.706
1.686
1.696
1.716
1.711
1.701
1.696
1.711
1.711
1.686
1.686
1.706
1.711
1.701
1.696
1.706
1.72
1.701
1.696
1.711
1.725
1.716
1.706
1.711
1.725
1.716
1.691
1.696
1.72
1.72
1.711
1.711
1.73
1.735
1.72
1.72
1.735
1.745
1.725
1.716
1.73
1.745
1.73
1.72
1.745
1.764
1.76
1.75
1.755
1.769
1.764
1.745
1.76
1.784
1.784
1.779
1.784
1.804
1.808
1.789
1.789
1.813
1.823
1.818
1.813
1.833
1.848
1.833
1.823
1.843
1.852
1.843
1.828
1.838
1.852
1.852
1.833
1.843
1.857
1.852
1.833
1.833
1.843
1.838
1.804
1.794
1.808
1.804
1.784
1.764
1.764
1.764
1.74
1.72
1.725
1.73
1.711
1.691
1.686
1.696
1.681
1.657
1.662
1.672
1.667
1.647
1.642
1.657
1.657
1.632
1.632
1.647
1.652
1.637
1.632
1.642
1.652
1.632
1.618
1.637
1.652
1.642
1.628
1.637
1.652
1.642
1.623
1.632
1.647
1.642
1.632
1.632
1.642
1.647
1.623
1.623
1.642
1.647
1.632
1.628
1.637
1.647
1.632
1.623
1.637
1.652
1.642
1.628
1.632
1.647
1.637
1.618
1.628
1.647
1.642
1.632
1.628
1.647
1.647
1.628
1.632
1.657
1.662
1.652
1.642
1.657
1.667
1.642
1.628
1.642
1.647
1.642
1.632
1.642
1.662
1.657
1.637
1.647
1.667
1.662
1.652
1.647
1.662
1.667
1.642
1.642
1.662
1.667
1.657
1.647
1.657
1.667
1.647
1.632
1.652
1.662
1.652
1.642
1.647
1.667
1.657
1.637
1.647
1.667
1.662
1.647
1.647
1.662
1.667
1.642
1.642
1.657
1.662
1.647
1.642
1.652
1.667
1.652
1.642
1.657
1.667
1.657
1.642
1.642
1.657
1.647
1.628
1.637
1.657
1.657
1.642
1.642
1.657
1.657
1.632
1.628
1.647
1.652
1.642
1.637
1.652
1.667
1.652
1.647
1.667
1.676
1.667
1.652
1.657
1.667
1.657
1.637
1.642
1.662
1.657
1.642
1.647
1.662
1.662
1.642
1.642
1.657
1.657
1.642
1.637
1.652
1.662
1.647
1.637
1.662
1.672
1.667
1.652
1.657
1.672
1.657
1.637
1.642
1.662
1.662
1.647
1.652
1.667
1.672
1.652
1.652
1.672
1.676
1.662
1.652
1.667
1.681
1.662
1.652
1.672
1.686
1.676
1.667
1.672
1.686
1.676
1.657
1.672
1.696
1.691
1.681
1.681
1.696
1.696
1.667
1.667
1.686
1.681
1.667
1.652
1.662
1.667
1.647
1.637
1.652
1.662
1.652
1.642
1.652
1.667
1.657
1.637
1.647
1.662
1.657
1.642
1.642
1.662
1.662
1.637
1.642
1.662
1.662
1.652
1.647
1.657
1.662
1.642
1.632
1.652
1.667
1.662
1.662
1.681
1.711
1.716
1.711
1.74
1.774
1.794
1.799
1.813
1.843
1.848
1.823
1.808
1.804
1.769
1.711
1.647
1.593
1.544
1.457
1.388
1.359
1.344
1.325
1.32
1.354
1.403
1.437
1.466
1.53
1.584
1.608
1.618
1.632
1.662
1.667
1.652
1.662
1.686
1.691
1.681
1.676
1.686
1.696
1.676
1.672
1.691
1.706
1.696
1.686
1.691
1.711
1.696
1.681
1.691
1.711
1.706
1.691
1.691
1.706
1.706
1.681
1.681
1.706
1.706
1.696
1.691
1.706
1.72
1.701
1.696
1.711
1.72
1.716
1.701
1.711
1.725
1.72
1.706
1.72
1.74
1.735
1.72
1.72
1.735
1.735
1.711
1.711
1.73
1.735
1.725
1.72
1.74
1.745
1.725
1.72
1.735
1.75
1.74
1.725
1.735
1.75
1.74
1.725
1.74
1.76
1.76
1.75
1.755
1.774
1.779
1.76
1.764
1.789
1.794
1.784
1.779
1.799
1.813
1.799
1.794
1.818
1.833
1.823
1.818
1.828
1.843
1.838
1.823
1.833
1.852
1.852
1.843
1.848
1.862
1.867
1.848
1.852
1.872
1.872
1.862
1.857
1.862
1.867
1.843
1.828
1.838
1.843
1.818
1.799
1.794
1.804
1.784
1.755
1.755
1.764
1.755
1.73
1.72
1.725
1.72
1.686
1.681
1.691
1.691
1.672
1.662
1.672
1.676
1.657
1.642
1.662
1.667
1.657
1.642
1.647
1.657
1.647
1.623
1.637
1.652
1.647
1.637
1.637
1.652
1.652
1.628
1.628
1.642
1.647
1.637
1.632
1.647
1.652
1.632
1.618
1.632
1.642
1.632
1.623
1.632
1.652
1.642
1.628
1.642
1.657
1.652
1.642
1.642
1.657
1.657
1.632
1.637
1.657
1.657
1.642
1.637
1.647
1.657
1.637
1.628
1.647
1.657
1.647
1.637
1.642
1.662
1.652
1.637
1.652
1.667
1.667
1.652
1.652
1.667
1.667
1.642
1.642
1.662
1.667
1.652
1.647
1.662
1.667
1.647
1.642
1.652
1.667
1.652
1.642
1.652
1.667
1.657
1.642
1.657
1.672
1.667
1.652
1.652
1.667
1.667
1.642
1.647
1.667
1.672
1.662
1.652
1.662
1.667
1.647
1.637
1.657
1.667
1.657
1.647
1.662
1.676
1.667
1.642
1.657
1.672
1.667
1.652
1.652
1.667
1.662
1.642
1.642
1.657
1.662
1.647
1.642
1.657
1.667
1.647
1.647
1.662
1.676
1.662
1.652
1.657
1.672
1.657
1.637
1.652
1.667
1.667
1.652
1.652
1.667
1.667
1.642
1.642
1.662
1.662
1.652
1.642
1.657
1.667
1.642
1.637
1.657
1.662
1.652
1.642
1.647
1.662
1.647
1.632
1.647
1.662
1.662
1.647
1.647
1.662
1.662
1.642
1.652
1.672
1.676
1.662
1.657
1.667
1.676
1.657
1.647
1.662
1.672
1.662
1.652
1.667
1.686
1.676
1.662
1.672
1.686
1.681
1.667
1.672
1.686
1.691
1.667
1.672
1.696
1.696
1.686
1.686
1.701
1.706
1.686
1.676
1.691
1.696
1.681
1.662
1.672
1.681
1.662
1.642
1.657
1.667
1.662
1.647
1.647
1.657
1.657
1.637
1.642
1.662
1.667
1.657
1.652
1.667
1.676
1.652
1.642
1.657
1.667
1.657
1.642
1.652
1.667
1.652
1.632
1.642
1.662
1.662
1.652
1.657
1.681
1.696
1.686
1.706
1.74
1.76
1.76
1.774
1.813
1.833
1.828
1.833
1.852
1.852
1.813
1.769
1.73
1.681
1.598
1.515
1.461
1.413
1.359
1.315
1.305
1.325
1.344
1.359
1.408
1.476
1.53
1.559
1.588
1.628
1.652
1.642
1.642
1.667
1.681
1.676
1.672
1.681
1.696
1.686
1.672
1.686
1.701
1.696
1.686
1.691
1.706
1.701
1.676
1.681
1.701
1.706
1.696
1.691
1.706
1.711
1.691
1.686
1.701
1.716
1.706
1.696
1.706
1.716
1.706
1.691
1.706
1.72
1.716
1.701
1.706
1.72
1.72
1.696
1.701
1.72
1.72
1.711
1.706
1.72
1.73
1.711
1.706
1.725
1.735
1.725
1.716
1.72
1.735
1.725
1.711
1.725
1.745
1.74
1.73
1.735
1.75
1.75
1.73
1.735
1.755
1.76
1.745
1.745
1.764
1.774
1.755
1.755
1.774
1.789
1.779
1.774
1.789
1.804
1.799
1.784
1.804
1.823
1.818
1.813
1.818
1.838
1.838
1.818
1.828
1.852
1.857
1.848
1.848
1.857
1.867
1.848
1.838
1.857
1.867
1.852
1.843
1.852
1.867
1.852
1.833
1.843
1.857
1.848
1.833
1.828
1.833
1.818
1.784
1.779
1.784
1.779
1.755
1.74
1.745
1.745
1.716
1.701
1.711
1.711
1.691
1.672
1.676
1.681
1.662
1.647
1.657
1.672
1.662
1.647
1.652
1.662
1.657
1.637
1.642
1.652
1.652
1.632
1.628
1.642
1.647
1.628
1.623
1.642
1.652
1.642
1.632
1.642
1.652
1.637
1.623
1.637
1.647
1.642
1.628
1.632
1.647
1.642
1.623
1.632
1.652
1.652
1.642
1.637
1.647
1.657
1.637
1.628
1.647
1.657
1.647
1.637
1.652
1.667
1.652
1.637
1.652
1.672
1.672
1.672
1.686
1.72
1.735
1.735
1.764
1.813
1.833
1.838
1.848
1.862
1.862
1.813
1.774
1.735
1.662
1.564
1.461
1.373
1.285
1.173
1.07
1.012
0.978
0.943
0.929
0.948
0.997
1.036
1.075
1.144
1.227
1.285
1.329
1.383
1.447
1.505
1.53
1.569
1.623
1.662
1.672
1.676
1.701
1.72
1.711
1.706
1.725
1.75
1.75
1.74
1.745
1.764
1.755
1.735
1.74
1.76
1.764
1.75
1.745
1.76
1.764
1.745
1.74
1.76
1.769
1.755
1.75
1.76
1.769
1.755
1.74
1.755
1.774
1.769
1.76
1.764
1.779
1.774
1.755
1.76
1.779
1.779
1.769
1.764
1.779
1.789
1.769
1.764
1.784
1.794
1.784
1.774
1.789
1.804
1.794
1.779
1.799
1.813
1.804
1.794
1.799
1.818
1.818
1.804
1.818
1.843
1.848
1.843
1.843
1.862
1.872
1.857
1.857
1.882
1.896
1.891
1.891
1.906
1.926
1.921
1.911
1.926
1.945
1.94
1.935
1.94
1.96
1.96
1.94
1.95
1.975
1.979
1.97
1.965
1.979
1.984
1.96
1.95
1.965
1.965
1.94
1.921
1.916
1.911
1.877
1.848
1.848
1.848
1.823
1.799
1.789
1.789
1.774
1.74
1.73
1.74
1.725
1.706
1.691
1.701
1.696
1.667
1.657
1.672
1.672
1.657
1.642
1.652
1.657
1.637
1.618
1.628
1.642
1.632
1.618
1.623
1.632
1.632
1.608
1.618
1.637
1.637
1.618
1.613
1.628
1.632
1.608
1.608
1.628
1.637
1.628
1.618
1.632
1.642
1.632
1.618
1.628
1.642
1.632
1.618
1.623
1.642
1.637
1.618
1.628
1.647
1.647
1.632
1.628
1.642
1.647
1.623
1.618
1.637
1.642
1.632
1.628
1.637
1.652
1.637
1.628
1.642
1.652
1.647
1.632
1.632
1.647
1.642
1.623
1.628
1.647
1.647
1.632
1.632
1.647
1.652
1.628
1.623
1.637
1.647
1.632
1.628
1.642
1.652
1.637
1.623
1.637
1.652
1.647
1.632
1.637
1.652
1.647
1.628
1.637
1.657
1.652
1.637
1.632
1.647
1.652
1.632
1.632
1.652
1.662
1.647
1.642
1.652
1.667
1.647
1.632
1.647
1.662
1.652
1.637
1.642
1.657
1.647
1.628
1.637
1.657
1.652
1.637
1.632
1.652
1.657
1.632
1.628
1.652
1.657
1.647
1.642
1.652
1.662
1.647
1.632
1.647
1.657
1.647
1.637
1.642
1.657
1.647
1.628
1.637
1.657
1.657
1.647
1.647
1.662
1.662
1.637
1.637
1.652
1.657
1.642
1.637
1.652
1.667
1.652
1.637
1.657
1.672
1.657
1.642
1.647
1.667
1.657
1.637
1.642
1.662
1.662
1.647
1.647
1.662
1.667
1.642
1.642
1.662
1.667
1.652
1.647
1.657
1.667
1.652
1.637
1.657
1.672
1.662
1.647
1.647
1.667
1.657
1.637
1.647
1.667
1.667
1.657
1.652
1.672
1.676
1.652
1.652
1.667
1.676
1.662
1.652
1.662
1.672
1.657
1.647
1.662
1.672
1.667
1.652
1.657
1.672
1.667
1.647
1.652
1.676
1.672
1.662
1.657
1.672
1.676
1.652
1.647
1.667
1.672
1.657
1.652
1.662
1.676
1.662
1.647
1.667
1.676
1.672
1.657
1.662
1.676
1.667
1.642
1.652
1.667
1.662
1.652
1.657
1.676
1.681
1.662
1.662
1.686
1.691
1.672
1.662
1.672
1.681
1.662
1.652
1.672
1.686
1.681
1.667
1.672
1.686
1.676
1.652
1.662
1.681
1.681
1.667
1.667
1.676
1.681
1.657
1.657
1.676
1.681
1.667
1.657
1.667
1.676
1.662
1.647
1.667
1.681
1.672
1.662
1.667
1.681
1.676
1.657
1.662
1.681
1.681
1.667
1.667
1.681
1.686
1.662
1.662
1.681
1.686
1.676
1.667
1.681
1.691
1.672
1.662
1.681
1.696
1.686
1.672
1.676
1.691
1.681
1.662
1.667
1.681
1.681
1.667
1.667
1.681
1.686
1.662
1.662
1.681
1.686
1.672
1.662
1.672
1.686
1.667
1.657
1.672
1.686
1.681
1.667
1.672
1.686
1.681
1.662
1.676
1.696
1.696
1.686
1.681
1.696
1.701
1.676
1.676
1.696
1.701
1.691
1.681
1.696
1.711
1.691
1.681
1.696
1.706
1.701
1.686
1.691
1.711
1.701
1.686
1.696
1.716
1.716
1.701
1.696
1.711
1.711
1.686
1.681
1.691
1.691
1.676
1.667
1.676
1.686
1.667
1.652
1.672
1.681
1.672
1.662
1.667
1.681
1.672
1.652
1.662
1.681
1.681
1.667
1.662
1.676
1.676
1.657
1.662
1.681
1.686
1.672
1.667
1.681
1.701
1.691
1.686
1.711
1.735
1.735
1.735
1.76
1.789
1.799
1.794
1.813
1.833
1.823
1.789
1.755
1.73
1.686
1.613
1.554
1.52
1.476
1.422
1.393
1.393
1.413
1.408
1.422
1.471
1.525
1.554
1.574
1.613
1.652
1.657
1.647
1.667
1.691
1.691
1.686
1.686
1.706
1.711
1.686
1.681
1.701
1.706
1.696
1.691
1.706
1.716
1.701
1.691
1.706
1.72
1.711
1.701
1.706
1.725
1.716
1.701
1.711
1.73
1.725
1.711
1.711
1.725
1.725
1.701
1.701
1.72
1.725
1.711
1.706
1.72
1.73
1.716
1.701
1.716
1.73
1.72
1.711
1.716
1.735
1.735
1.716
1.73
1.75
1.75
1.74
1.735
1.75
1.75
1.73
1.725
1.745
1.75
1.74
1.73
1.745
1.755
1.735
1.73
1.75
1.764
1.76
1.755
1.764
1.779
1.769
1.75
1.76
1.779
1.779
1.764
1.769
1.789
1.794
1.774
1.779
1.799
1.804
1.794
1.789
1.804
1.813
1.794
1.784
1.804
1.818
1.808
1.799
1.808
1.823
1.813
1.794
1.808
1.828
1.828
1.818
1.813
1.833
1.828
1.804
1.804
1.818
1.818
1.799
1.789
1.799
1.808
1.789
1.774
1.789
1.794
1.779
1.76
1.764
1.774
1.76
1.735
1.735
1.75
1.735
1.716
1.711
1.716
1.711
1.681
1.676
1.691
1.691
1.676
1.667
1.681
1.691
1.667
1.652
1.667
1.672
1.662
1.647
1.652
1.667
1.662
1.647
1.657
1.676
1.672
1.652
1.652
1.662
1.662
1.637
1.637
1.657
1.662
1.652
1.647
1.657
1.667
1.647
1.637
1.652
1.667
1.657
1.642
1.647
1.667
1.657
1.637
1.652
1.667
1.667
1.652
1.657
1.672
1.672
1.647
1.652
1.672
1.676
1.662
1.657
1.667
1.681
1.657
1.647
1.662
1.672
1.667
1.652
1.662
1.676
1.667
1.652
1.662
1.681
1.676
1.662
1.657
1.672
1.672
1.652
1.652
1.676
1.681
1.672
1.667
1.681
1.691
1.672
1.662
1.676
1.686
1.672
1.652
1.662
1.676
1.667
1.647
1.657
1.676
1.672
1.662
1.662
1.672
1.672
1.647
1.647
1.667
1.672
1.662
1.657
1.672
1.681
1.662
1.657
1.676
1.686
1.676
1.662
1.672
1.686
1.672
1.652
1.662
1.681
1.676
1.667
1.667
1.686
1.686
1.667
1.667
1.686
1.686
1.672
1.667
1.676
1.686
1.672
1.662
1.686
1.701
1.696
1.681
1.691
1.706
1.691
1.667
1.672
1.681
1.672
1.652
1.642
1.657
1.657
1.637
1.642
1.662
1.662
1.652
1.647
1.657
1.667
1.647
1.632
1.652
1.662
1.647
1.637
1.642
1.657
1.647
1.628
1.642
1.657
1.657
1.642
1.647
1.662
1.657
1.632
1.632
1.652
1.657
1.652
1.652
1.676
1.701
1.696
1.701
1.73
1.755
1.76
1.764
1.789
1.818
1.823
1.808
1.813
1.808
1.769
1.706
1.652
1.608
1.544
1.457
1.403
1.373
1.344
1.32
1.315
1.344
1.383
1.408
1.442
1.505
1.564
1.588
1.608
1.632
1.662
1.657
1.647
1.662
1.686
1.686
1.676
1.676
1.691
1.691
1.667
1.667
1.691
1.696
1.686
1.686
1.696
1.711
1.686
1.676
1.696
1.706
1.691
1.681
1.686
1.701
1.691
1.676
1.686
1.706
1.706
1.691
1.691
1.711
1.711
1.691
1.691
1.716
1.72
1.706
1.701
1.711
1.72
1.696
1.686
1.706
1.72
1.711
1.701
1.716
1.73
1.72
1.706
1.716
1.73
1.725
1.716
1.716
1.73
1.73
1.711
1.716
1.735
1.745
1.73
1.725
1.745
1.755
1.735
1.73
1.755
1.769
1.76
1.755
1.764
1.779
1.774
1.76
1.774
1.794
1.794
1.784
1.789
1.808
1.813
1.794
1.799
1.823
1.828
1.813
1.813
1.828
1.843
1.828
1.823
1.848
1.862
1.852
1.843
1.852
1.862
1.848
1.828
1.833
1.852
1.848
1.833
1.838
1.848
1.848
1.818
1.818
1.828
1.823
1.799
1.784
1.784
1.784
1.755
1.74
1.75
1.75
1.73
1.711
1.706
1.711
1.686
1.667
1.672
1.681
1.672
1.657
1.652
1.662
1.657
1.628
1.628
1.642
1.642
1.628
1.623
1.637
1.647
1.628
1.623
1.642
1.652
1.642
1.632
1.637
1.647
1.632
1.613
1.623
1.632
1.632
1.618
1.623
1.637
1.637
1.613
1.618
1.637
1.637
1.623
1.618
1.628
1.637
1.618
1.613
1.632
1.642
1.632
1.623
1.632
1.642
1.632
1.613
1.623
1.637
1.632
1.623
1.623
1.642
1.647
1.628
1.632
1.652
1.657
1.647
1.642
1.652
1.657
1.637
1.628
1.647
1.652
1.642
1.637
1.647
1.662
1.652
1.632
1.647
1.667
1.662
1.647
1.647
1.662
1.662
1.642
1.642
1.662
1.662
1.647
1.642
1.652
1.657
1.632
1.628
1.647
1.657
1.647
1.637
1.647
1.662
1.647
1.628
1.642
1.657
1.657
1.642
1.642
1.657
1.657
1.632
1.637
1.657
1.657
1.647
1.642
1.657
1.667
1.642
1.637
1.652
1.662
1.647
1.637
1.647
1.662
1.652
1.637
1.652
1.676
1.672
1.662
1.662
1.676
1.676
1.652
1.657
1.676
1.681
1.667
1.657
1.672
1.681
1.657
1.652
1.672
1.681
1.672
1.667
1.676
1.691
1.681
1.667
1.681
1.701
1.691
1.672
1.667
1.681
1.676
1.647
1.647
1.662
1.662
1.647
1.642
1.657
1.662
1.637
1.632
1.647
1.657
1.647
1.632
1.642
1.657
1.642
1.623
1.632
1.652
1.647
1.637
1.637
1.652
1.652
1.628
1.632
1.652
1.657
1.642
1.637
1.652
1.662
1.642
1.642
1.667
1.686
1.686
1.691
1.716
1.745
1.75
1.755
1.784
1.813
1.823
1.818
1.818
1.828
1.804
1.75
1.711
1.676
1.618
1.54
1.466
1.417
1.373
1.32
1.3
1.32
1.349
1.373
1.403
1.461
1.52
1.554
1.569
1.608
1.642
1.647
1.642
1.652
1.676
1.681
1.662
1.667
1.691
1.691
1.676
1.672
1.681
1.691
1.672
1.662
1.681
1.691
1.681
1.672
1.681
1.696
1.681
1.662
1.676
1.696
1.696
1.681
1.686
1.706
1.711
1.691
1.691
1.711
1.711
1.691
1.686
1.696
1.706
1.686
1.681
1.701
1.716
1.706
1.696
1.706
1.72
1.711
1.691
1.706
1.72
1.716
1.701
1.701
1.72
1.716
1.696
1.706
1.725
1.73
1.716
1.716
1.73
1.74
1.72
1.716
1.735
1.745
1.735
1.725
1.735
1.75
1.74
1.73
1.745
1.764
1.764
1.755
1.76
1.779
1.779
1.76
1.769
1.794
1.799
1.789
1.789
1.804
1.813
1.794
1.794
1.813
1.828
1.823
1.818
1.833
1.852
1.843
1.828
1.843
1.857
1.857
1.848
1.848
1.862
1.857
1.833
1.833
1.848
1.843
1.823
1.813
1.823
1.823
1.799
1.784
1.789
1.789
1.769
1.755
1.755
1.755
1.735
1.711
1.716
1.72
1.706
1.686
1.676
1.686
1.676
1.647
1.647
1.667
1.667
1.647
1.642
1.652
1.657
1.632
1.623
1.637
1.642
1.632
1.623
1.632
1.647
1.637
1.623
1.632
1.652
1.642
1.628
1.632
1.647
1.642
1.623
1.628
1.642
1.642
1.628
1.628
1.637
1.642
1.618
1.613
1.632
1.642
1.632
1.623
1.632
1.647
1.632
1.618
1.632
1.647
1.642
1.632
1.632
1.647
1.642
1.623
1.628
1.647
1.647
1.637
1.628
1.642
1.652
1.628
1.623
1.642
1.652
1.642
1.632
1.642
1.662
1.647
1.632
1.642
1.657
1.647
1.637
1.642
1.657
1.657
1.637
1.647
1.662
1.662
1.647
1.642
1.657
1.662
1.642
1.642
1.662
1.672
1.657
1.647
1.652
1.662
1.647
1.632
1.647
1.667
1.657
1.647
1.647
1.662
1.662
1.637
1.642
1.662
1.662
1.647
1.642
1.657
1.662
1.642
1.642
1.662
1.672
1.657
1.642
1.647
1.662
1.647
1.632
1.647
1.662
1.652
1.637
1.642
1.657
1.657
1.632
1.637
1.657
1.662
1.647
1.647
1.662
1.672
1.647
1.642
1.662
1.667
1.652
1.647
1.662
1.676
1.662
1.647
1.662
1.676
1.676
1.662
1.667
1.681
1.676
1.652
1.662
1.681
1.686
1.676
1.672
1.686
1.696
1.672
1.662
1.676
1.681
1.667
1.652
1.657
1.667
1.647
1.637
1.647
1.662
1.657
1.637
1.637
1.652
1.647
1.628
1.632
1.647
1.647
1.637
1.637
1.652
1.662
1.637
1.632
1.647
1.657
1.642
1.628
1.637
1.652
1.637
1.628
1.642
1.657
1.652
1.642
1.652
1.676
1.681
1.672
1.686
1.72
1.735
1.745
1.76
1.794
1.818
1.813
1.818
1.833
1.828
1.794
1.745
1.711
1.667
1.588
1.51
1.457
1.413
1.354
1.31
1.3
1.32
1.339
1.354
1.403
1.471
1.52
1.549
1.584
1.623
1.647
1.637
1.642
1.667
1.681
1.676
1.667
1.676
1.691
1.676
1.662
1.676
1.696
1.691
1.681
1.681
1.696
1.691
1.672
1.676
1.696
1.701
1.691
1.686
1.701
1.706
1.686
1.681
1.696
1.706
1.691
1.686
1.696
1.711
1.696
1.681
1.696
1.716
1.711
1.696
1.701
1.716
1.716
1.696
1.701
1.72
1.72
1.711
1.706
1.716
1.72
1.696
1.696
1.716
1.725
1.716
1.711
1.72
1.735
1.725
1.711
1.73
1.745
1.74
1.73
1.735
1.75
1.745
1.725
1.735
1.755
1.755
1.745
1.745
1.764
1.774
1.76
1.76
1.784
1.789
1.784
1.774
1.789
1.804
1.789
1.784
1.804
1.823
1.823
1.808
1.818
1.838
1.838
1.823
1.833
1.852
1.857
1.848
1.843
1.857
1.862
1.843
1.843
1.862
1.872
1.857
1.848
1.852
1.862
1.843
1.823
1.833
1.838
1.823
1.804
1.799
1.804
1.794
1.76
1.76
1.769
1.755
1.73
1.716
1.72
1.716
1.686
1.676
1.686
1.691
1.672
1.657
1.667
1.676
1.657
1.637
1.647
1.657
1.647
1.632
1.637
1.652
1.647
1.623
1.628
1.647
1.652
1.632
1.628
1.642
1.647
1.628
1.623
1.642
1.652
1.637
1.628
1.637
1.652
1.632
1.618
1.628
1.642
1.632
1.618
1.623
1.642
1.642
1.623
1.632
1.652
1.652
1.637
1.632
1.647
1.647
1.628
1.623
1.642
1.652
1.642
1.632
1.637
1.647
1.632
1.623
1.637
1.652
1.642
1.632
1.637
1.652
1.647
1.628
1.632
1.657
1.657
1.647
1.642
1.657
1.667
1.647
1.647
1.662
1.667
1.652
1.642
1.647
1.657
1.637
1.623
1.642
1.662
1.657
1.652
1.657
1.672
1.667
1.647
1.647
1.662
1.657
1.642
1.637
1.652
1.662
1.637
1.637
1.652
1.662
1.642
1.637
1.647
1.662
1.652
1.637
1.652
1.667
1.662
1.652
1.652
1.667
1.657
1.632
1.637
1.652
1.657
1.642
1.642
1.657
1.662
1.642
1.642
1.662
1.667
1.652
1.642
1.652
1.667
1.647
1.637
1.652
1.662
1.652
1.642
1.642
1.662
1.652
1.632
1.647
1.667
1.667
1.657
1.652
1.667
1.672
1.647
1.642
1.662
1.667
1.652
1.642
1.657
1.672
1.652
1.642
1.657
1.672
1.667
1.657
1.662
1.681
1.676
1.657
1.667
1.686
1.686
1.676
1.672
1.686
1.686
1.662
1.652
1.667
1.667
1.652
1.642
1.647
1.657
1.637
1.623
1.637
1.652
1.642
1.632
1.637
1.657
1.652
1.628
1.637
1.652
1.647
1.637
1.632
1.647
1.652
1.628
1.628
1.652
1.662
1.647
1.637
1.647
1.652
1.637
1.623
1.642
1.667
1.667
1.667
1.681
1.716
1.72
1.72
1.745
1.784
1.799
1.804
1.813
1.838
1.838
1.808
1.779
1.76
1.716
1.642
1.569
1.505
1.447
1.369
1.31
1.295
1.3
1.3
1.32
1.364
1.427
1.476
1.505
1.554
1.603
1.632
1.632
1.647
1.672
1.681
1.662
1.662
1.681
1.686
1.672
1.662
1.672
1.681
1.667
1.657
1.676
1.691
1.681
1.672
1.676
1.696
1.691
1.672
1.681
1.701
1.701
1.691
1.686
1.701
1.701
1.676
1.676
1.701
1.706
1.696
1.686
1.696
1.706
1.691
1.676
1.691
1.706
1.701
1.691
1.701
1.725
1.72
1.701
1.716
1.73
1.73
1.716
1.711
1.72
1.72
1.701
1.701
1.72
1.73
1.72
1.716
1.73
1.74
1.725
1.711
1.725
1.74
1.735
1.72
1.73
1.745
1.74
1.725
1.74
1.764
1.764
1.75
1.755
1.774
1.784
1.764
1.769
1.794
1.804
1.794
1.794
1.808
1.823
1.808
1.804
1.823
1.838
1.833
1.828
1.838
1.857
1.852
1.833
1.848
1.867
1.867
1.857
1.852
1.867
1.872
1.848
1.843
1.862
1.862
1.848
1.838
1.848
1.857
1.828
1.808
1.813
1.818
1.794
1.769
1.76
1.764
1.745
1.72
1.725
1.73
1.72
1.701
1.691
1.696
1.691
1.662
1.657
1.672
1.672
1.657
1.647
1.652
1.662
1.642
1.628
1.642
1.652
1.637
1.628
1.632
1.647
1.642
1.623
1.632
1.652
1.647
1.632
1.632
1.642
1.647
1.623
1.623
1.637
1.642
1.632
1.623
1.632
1.647
1.632
1.618
1.632
1.642
1.632
1.623
1.628
1.642
1.632
1.613
1.623
1.647
1.642
1.628
1.628
1.642
1.642
1.623
1.623
1.642
1.647
1.632
1.628
1.642
1.652
1.632
1.618
1.632
1.647
1.637
1.628
1.637
1.652
1.647
1.628
1.637
1.657
1.652
1.642
1.642
1.657
1.657
1.637
1.637
1.657
1.662
1.647
1.637
1.647
1.657
1.642
1.632
1.647
1.662
1.652
1.647
1.652
1.667
1.662
1.637
1.647
1.662
1.662
1.642
1.642
1.657
1.662
1.642
1.642
1.662
1.667
1.652
1.642
1.652
1.662
1.642
1.632
1.652
1.667
1.652
1.642
1.647
1.667
1.657
1.637
1.647
1.667
1.662
1.647
1.642
1.657
1.662
1.637
1.642
1.662
1.662
1.652
1.647
1.657
1.667
1.642
1.632
1.652
1.662
1.652
1.642
1.647
1.662
1.657
1.637
1.647
1.662
1.662
1.652
1.652
1.667
1.672
1.647
1.647
1.662
1.667
1.652
1.647
1.662
1.676
1.662
1.647
1.667
1.681
1.672
1.662
1.672
1.686
1.676
1.657
1.672
1.691
1.691
1.681
1.681
1.696
1.696
1.667
1.662
1.676
1.676
1.657
1.647
1.657
1.667
1.647
1.637
1.652
1.667
1.652
1.642
1.647
1.662
1.647
1.632
1.642
1.657
1.657
1.647
1.642
1.657
1.657
1.637
1.642
1.662
1.662
1.652
1.642
1.657
1.672
1.652
1.642
1.662
1.672
1.667
1.657
1.672
1.696
1.696
1.691
1.716
1.755
1.769
1.774
1.794
1.823
1.838
1.823
1.818
1.823
1.799
1.75
1.696
1.652
1.598
1.515
1.437
1.398
1.369
1.334
1.315
1.329
1.369
1.398
1.427
1.486
1.549
1.588
1.603
1.628
1.657
1.667
1.652
1.662
1.686
1.691
1.681
1.672
1.681
1.691
1.672
1.667
1.686
1.706
1.701
1.691
1.696
1.711
1.701
1.681
1.691
1.706
1.706
1.691
1.696
1.711
1.716
1.691
1.691
1.711
1.711
1.696
1.691
1.701
1.716
1.696
1.691
1.711
1.72
1.711
1.701
1.711
1.725
1.72
1.701
1.716
1.73
1.725
1.716
1.716
1.73
1.73
1.706
1.711
1.73
1.735
1.725
1.72
1.735
1.745
1.725
1.716
1.735
1.75
1.74
1.73
1.745
1.764
1.755
1.74
1.755
1.774
1.774
1.764
1.764
1.784
1.789
1.769
1.774
1.799
1.804
1.799
1.794
1.808
1.823
1.804
1.799
1.818
1.838
1.833
1.823
1.838
1.852
1.848
1.838
1.852
1.872
1.872
1.857
1.857
1.872
1.877
1.857
1.862
1.882
1.882
1.867
1.857
1.862
1.867
1.838
1.818
1.823
1.828
1.808
1.794
1.794
1.794
1.774
1.745
1.745
1.75
1.74
1.716
1.706
1.716
1.706
1.676
1.672
1.686
1.686
1.672
1.662
1.667
1.672
1.647
1.637
1.647
1.652
1.642
1.628
1.637
1.652
1.642
1.623
1.637
1.652
1.647
1.628
1.628
1.642
1.642
1.623
1.623
1.642
1.647
1.628
1.623
1.632
1.642
1.628
1.623
1.637
1.652
1.647
1.637
1.647
1.662
1.647
1.628
1.637
1.652
1.647
1.632
1.632
1.647
1.647
1.628
1.628
1.652
1.652
1.642
1.632
1.647
1.662
1.637
1.632
1.647
1.657
1.647
1.637
1.647
1.662
1.647
1.628
1.642
1.657
1.652
1.642
1.642
1.657
1.657
1.632
1.637
1.657
1.657
1.642
1.642
1.657
1.667
1.647
1.642
1.657
1.672
1.657
1.647
1.652
1.667
1.657
1.637
1.652
1.672
1.667
1.657
1.657
1.672
1.672
1.652
1.652
1.672
1.676
1.662
1.657
1.672
1.681
1.662
1.647
1.662
1.672
1.662
1.647
1.657
1.672
1.662
1.652
1.667
1.686
1.681
1.667
1.662
1.676
1.672
1.647
1.652
1.672
1.676
1.667
1.662
1.676
1.686
1.667
1.662
1.676
1.691
1.681
1.672
1.676
1.696
1.686
1.667
1.686
1.701
1.696
1.686
1.681
1.696
1.691
1.662
1.657
1.667
1.662
1.647
1.637
1.652
1.667
1.652
1.647
1.667
1.676
1.667
1.652
1.652
1.667
1.647
1.628
1.637
1.652
1.647
1.637
1.637
1.657
1.652
1.632
1.637
1.657
1.657
1.642
1.637
1.652
1.662
1.637
1.632
1.652
1.662
1.657
1.652
1.667
1.696
1.691
1.691
1.72
1.755
1.764
1.764
1.784
1.813
1.818
1.799
1.794
1.789
1.76
1.701
1.647
1.613
1.564
1.481
1.417
1.388
1.369
1.344
1.339
1.359
1.403
1.427
1.457
1.515
1.574
1.603
1.618
1.637
1.662
1.667
1.652
1.657
1.681
1.686
1.676
1.667
1.681
1.691
1.676
1.672
1.696
1.711
1.701
1.691
1.701
1.711
1.696
1.676
1.686
1.701
1.696
1.681
1.686
1.706
1.706
1.686
1.691
1.711
1.716
1.701
1.696
1.711
1.72
1.696
1.691
1.711
1.72
1.706
1.701
1.711
1.725
1.711
1.696
1.706
1.725
1.72
1.706
1.711
1.725
