Num1
1.833
1.857
1.848
1.843
1.862
1.877
1.877
1.867
1.872
1.896
1.901
1.887
1.896
1.911
1.911
1.901
1.891
1.901
1.896
1.872
1.857
1.862
1.852
1.828
1.808
1.799
1.804
1.784
1.764
1.769
1.769
1.75
1.73
1.72
1.725
1.706
1.676
1.672
1.681
1.672
1.652
1.642
1.647
1.642
1.613
1.608
1.623
1.628
1.623
1.618
1.628
1.637
1.623
1.608
1.618
1.628
1.613
1.603
1.603
1.618
1.613
1.593
1.608
1.628
1.632
1.623
1.623
1.637
1.637
1.608
1.603
1.613
1.613
1.603
1.598
1.608
1.623
1.608
1.593
1.608
1.618
1.613
1.608
1.618
1.637
1.632
1.618
1.628
1.642
1.642
1.628
1.618
1.628
1.628
1.603
1.603
1.623
1.628
1.618
1.608
1.618
1.632
1.618
1.608
1.623
1.637
1.632
1.628
1.632
1.652
1.647
1.628
1.642
1.657
1.652
1.642
1.637
1.647
1.647
1.628
1.623
1.642
1.647
1.637
1.628
1.637
1.652
1.632
1.628
1.637
1.647
1.642
1.632
1.628
1.642
1.628
1.613
1.618
1.637
1.637
1.632
1.632
1.647
1.652
1.632
1.632
1.647
1.652
1.642
1.632
1.642
1.647
1.628
1.613
1.628
1.632
1.632
1.632
1.642
1.672
1.672
1.657
1.667
1.681
1.676
1.662
1.657
1.667
1.672
1.657
1.662
1.691
1.701
1.696
1.691
1.696
1.711
1.691
1.672
1.681
1.686
1.676
1.662
1.657
1.672
1.662
1.642
1.647
1.657
1.652
1.642
1.637
1.647
1.652
1.628
1.628
1.647
1.652
1.647
1.642
1.652
1.662
1.642
1.628
1.637
1.642
1.628
1.618
1.618
1.632
1.628
1.613
1.623
1.642
1.647
1.637
1.632
1.647
1.647
1.618
1.613
1.618
1.608
1.588
1.569
1.574
1.584
1.579
1.593
1.652
1.725
1.794
1.877
1.965
2.067
2.131
2.16
2.19
2.204
2.17
2.107
2.033
1.96
1.872
1.76
1.672
1.618
1.564
1.515
1.481
1.471
1.476
1.457
1.457
1.486
1.515
1.525
1.54
1.564
1.603
1.618
1.613
1.632
1.657
1.657
1.642
1.637
1.652
1.652
1.632
1.637
1.657
1.662
1.657
1.647
1.657
1.667
1.652
1.642
1.657
1.672
1.667
1.662
1.667
1.686
1.681
1.667
1.672
1.686
1.681
1.672
1.676
1.691
1.696
1.676
1.681
1.696
1.701
1.691
1.686
1.696
1.711
1.691
1.686
1.706
1.725
1.72
1.716
1.725
1.75
1.745
1.73
1.745
1.764
1.764
1.755
1.755
1.764
1.764
1.75
1.755
1.779
1.794
1.794
1.799
1.823
1.843
1.838
1.833
1.852
1.867
1.867
1.862
1.872
1.896
1.896
1.882
1.891
1.911
1.906
1.896
1.887
1.896
1.896
1.867
1.862
1.872
1.867
1.852
1.838
1.838
1.838
1.808
1.784
1.784
1.779
1.76
1.74
1.735
1.74
1.725
1.696
1.691
1.691
1.676
1.657
1.642
1.647
1.642
1.618
1.613
1.632
1.632
1.618
1.608
1.618
1.628
1.608
1.598
1.618
1.628
1.623
1.613
1.608
1.623
1.608
1.588
1.598
1.613
1.608
1.603
1.603
1.623
1.623
1.603
1.598
1.618
1.618
1.608
1.603
1.613
1.628
1.608
1.603
1.623
1.628
1.623
1.613
1.613
1.623
1.613
1.598
1.603
1.623
1.623
1.613
1.613
1.632
1.632
1.608
1.608
1.623
1.628
1.623
1.623
1.632
1.642
1.623
1.613
1.628
1.632
1.623
1.618
1.623
1.642
1.632
1.618
1.628
1.642
1.637
1.628
1.623
1.637
1.647
1.632
1.637
1.657
1.662
1.652
1.642
1.647
1.647
1.623
1.608
1.618
1.632
1.628
1.628
1.637
1.652
1.647
1.628
1.637
1.647
1.642
1.637
1.632
1.642
1.642
1.618
1.618
1.637
1.642
1.632
1.623
1.632
1.637
1.623
1.618
1.632
1.647
1.642
1.632
1.642
1.662
1.652
1.637
1.647
1.667
1.662
1.652
1.647
1.662
1.662
1.642
1.642
1.667
1.672
1.672
1.672
1.686
1.701
1.681
1.676
1.691
1.706
1.701
1.691
1.696
1.706
1.691
1.662
1.662
1.672
1.662
1.647
1.642
1.652
1.652
1.632
1.632
1.647
1.647
1.637
1.623
1.632
1.642
1.623
1.618
1.637
1.647
1.647
1.637
1.642
1.657
1.642
1.628
1.637
1.647
1.642
1.632
1.632
1.642
1.637
1.613
1.618
1.637
1.642
1.632
1.623
1.628
1.628
1.593
1.574
1.574
1.569
1.559
1.564
1.598
1.662
1.725
1.794
1.896
2.004
2.092
2.16
2.209
2.243
2.229
2.17
2.107
2.048
1.96
1.862
1.764
1.696
1.637
1.559
1.505
1.491
1.481
1.466
1.457
1.476
1.505
1.515
1.52
1.554
1.593
1.613
1.618
1.628
1.652
1.652
1.632
1.628
1.647
1.652
1.647
1.647
1.662
1.681
1.667
1.657
1.672
1.672
1.662
1.647
1.652
1.667
1.657
1.637
1.647
1.667
1.672
1.667
1.667
1.681
1.681
1.657
1.667
1.686
1.691
1.686
1.681
1.696
1.706
1.686
1.676
1.696
1.701
1.696
1.691
1.701
1.725
1.716
1.706
1.725
1.745
1.745
1.745
1.75
1.769
1.769
1.745
1.745
1.769
1.774
1.774
1.779
1.799
1.818
1.804
1.804
1.823
1.833
1.828
1.818
1.828
1.852
1.848
1.843
1.867
1.887
1.891
1.887
1.887
1.901
1.896
1.872
1.877
1.891
1.891
1.887
1.877
1.887
1.887
1.862
1.848
1.857
1.857
1.838
1.818
1.808
1.804
1.779
1.75
1.745
1.745
1.73
1.716
1.711
1.72
1.711
1.676
1.667
1.672
1.657
1.637
1.628
1.632
1.632
1.608
1.598
1.618
1.623
1.618
1.608
1.608
1.623
1.603
1.588
1.603
1.623
1.618
1.613
1.613
1.628
1.628
1.603
1.603
1.613
1.613
1.603
1.598
1.613
1.618
1.598
1.593
1.613
1.623
1.613
1.598
1.608
1.623
1.613
1.598
1.618
1.637
1.642
1.642
1.642
1.652
1.647
1.618
1.613
1.623
1.618
1.608
1.603
1.618
1.632
1.618
1.618
1.637
1.642
1.632
1.623
1.628
1.642
1.623
1.608
1.618
1.637
1.632
1.628
1.632
1.647
1.647
1.623
1.623
1.637
1.637
1.623
1.618
1.632
1.642
1.618
1.618
1.632
1.637
1.632
1.628
1.632
1.647
1.632
1.618
1.628
1.637
1.632
1.623
1.623
1.637
1.637
1.618
1.623
1.637
1.637
1.628
1.628
1.637
1.642
1.623
1.613
1.632
1.642
1.637
1.632
1.637
1.657
1.642
1.623
1.632
1.642
1.637
1.628
1.628
1.642
1.637
1.618
1.628
1.652
1.657
1.647
1.642
1.652
1.657
1.632
1.628
1.642
1.652
1.652
1.647
1.657
1.672
1.657
1.642
1.652
1.667
1.662
1.662
1.672
1.696
1.701
1.686
1.696
1.711
1.711
1.696
1.686
1.696
1.701
1.676
1.667
1.681
1.686
1.672
1.657
1.662
1.676
1.657
1.632
1.637
1.647
1.647
1.637
1.642
1.657
1.652
1.628
1.632
1.647
1.647
1.637
1.632
1.642
1.652
1.628
1.623
1.642
1.652
1.642
1.632
1.632
1.642
1.623
1.608
1.623
1.642
1.637
1.628
1.618
1.623
1.608
1.569
1.554
1.559
1.554
1.559
1.579
1.632
1.701
1.755
1.843
1.955
2.058
2.136
2.199
2.248
2.278
2.248
2.195
2.141
2.072
1.975
1.867
1.774
1.701
1.623
1.54
1.505
1.491
1.481
1.466
1.466
1.491
1.515
1.51
1.525
1.559
1.584
1.593
1.608
1.628
1.657
1.647
1.637
1.647
1.657
1.647
1.637
1.637
1.657
1.657
1.642
1.652
1.672
1.672
1.667
1.662
1.672
1.676
1.652
1.647
1.667
1.672
1.667
1.662
1.672
1.686
1.676
1.667
1.681
1.696
1.696
1.691
1.691
1.701
1.696
1.672
1.676
1.696
1.701
1.696
1.691
1.711
1.725
1.711
1.711
1.73
1.74
1.735
1.73
1.745
1.764
1.75
1.74
1.755
1.774
1.774
1.769
1.779
1.799
1.804
1.789
1.804
1.833
1.843
1.843
1.848
1.867
1.872
1.852
1.852
1.872
1.877
1.877
1.877
1.896
1.916
1.901
1.891
1.901
1.916
1.901
1.887
1.882
1.891
1.877
1.848
1.848
1.857
1.848
1.828
1.813
1.808
1.799
1.76
1.74
1.745
1.735
1.72
1.701
1.701
1.706
1.681
1.662
1.667
1.672
1.662
1.647
1.642
1.652
1.642
1.613
1.618
1.637
1.637
1.628
1.623
1.637
1.642
1.618
1.608
1.623
1.623
1.618
1.608
1.618
1.628
1.608
1.588
1.603
1.613
1.608
1.598
1.598
1.613
1.613
1.598
1.608
1.628
1.628
1.618
1.613
1.623
1.628
1.608
1.603
1.623
1.632
1.628
1.623
1.632
1.647
1.632
1.618
1.628
1.642
1.642
1.632
1.637
1.647
1.637
1.608
1.613
1.628
1.628
1.623
1.623
1.637
1.642
1.618
1.618
1.632
1.637
1.628
1.618
1.628
1.642
1.632
1.618
1.632
1.642
1.632
1.618
1.618
1.637
1.632
1.613
1.623
1.642
1.647
1.642
1.642
1.657
1.662
1.632
1.628
1.642
1.652
1.642
1.632
1.637
1.647
1.632
1.618
1.628
1.642
1.637
1.628
1.637
1.657
1.652
1.632
1.632
1.647
1.642
1.628
1.623
1.632
1.642
1.623
1.623
1.642
1.657
1.657
1.652
1.662
1.672
1.652
1.632
1.642
1.652
1.642
1.632
1.632
1.652
1.647
1.632
1.642
1.662
1.662
1.647
1.647
1.657
1.662
1.642
1.637
1.657
1.662
1.657
1.652
1.667
1.686
1.676
1.676
1.696
1.711
1.706
1.701
1.701
1.716
1.706
1.681
1.681
1.696
1.691
1.681
1.681
1.691
1.691
1.662
1.652
1.667
1.667
1.662
1.652
1.657
1.667
1.652
1.632
1.647
1.657
1.647
1.637
1.637
1.652
1.642
1.618
1.623
1.637
1.637
1.628
1.628
1.642
1.647
1.628
1.628
1.647
1.652
1.642
1.637
1.647
1.657
1.632
1.613
1.613
1.608
1.588
1.569
1.559
1.569
1.559
1.549
1.579
1.632
1.691
1.764
1.848
1.96
2.058
2.121
2.195
2.258
2.283
2.268
2.229
2.175
2.102
1.989
1.877
1.799
1.72
1.637
1.559
1.51
1.491
1.466
1.442
1.457
1.481
1.5
1.51
1.53
1.569
1.598
1.593
1.608
1.642
1.652
1.647
1.642
1.652
1.667
1.652
1.642
1.657
1.672
1.672
1.667
1.672
1.686
1.667
1.642
1.647
1.657
1.652
1.647
1.652
1.672
1.681
1.662
1.662
1.676
1.681
1.672
1.667
1.676
1.696
1.676
1.672
1.691
1.706
1.701
1.691
1.691
1.706
1.696
1.676
1.691
1.711
1.716
1.711
1.706
1.725
1.725
1.706
1.706
1.725
1.735
1.735
1.735
1.75
1.774
1.764
1.764
1.784
1.804
1.804
1.804
1.813
1.833
1.828
1.808
1.828
1.852
1.857
1.857
1.867
1.887
1.896
1.877
1.877
1.891
1.896
1.887
1.882
1.891
1.901
1.882
1.872
1.882
1.891
1.882
1.867
1.867
1.872
1.852
1.818
1.813
1.813
1.794
1.764
1.745
1.745
1.73
1.696
1.681
1.686
1.681
1.667
1.652
1.657
1.667
1.642
1.632
1.642
1.652
1.637
1.623
1.618
1.628
1.618
1.593
1.603
1.618
1.613
1.608
1.603
1.613
1.613
1.588
1.584
1.598
1.598
1.588
1.588
1.603
1.618
1.603
1.593
1.608
1.623
1.618
1.603
1.603
1.613
1.603
1.584
1.593
1.613
1.613
1.603
1.603
1.618
1.618
1.593
1.598
1.618
1.623
1.623
1.618
1.628
1.637
1.613
1.598
1.608
1.618
1.608
1.603
1.608
1.628
1.623
1.608
1.618
1.632
1.628
1.623
1.623
1.637
1.632
1.608
1.608
1.623
1.628
1.618
1.613
1.623
1.637
1.623
1.618
1.632
1.642
1.632
1.618
1.613
1.628
1.613
1.593
1.608
1.623
1.623
1.618
1.618
1.632
1.632
1.608
1.608
1.628
1.632
1.628
1.628
1.642
1.657
1.637
1.623
1.637
1.642
1.632
1.623
1.623
1.637
1.628
1.608
1.618
1.632
1.632
1.628
1.623
1.637
1.642
1.618
1.618
1.632
1.632
1.628
1.618
1.632
1.647
1.628
1.618
1.628
1.637
1.632
1.623
1.628
1.642
1.632
1.618
1.628
1.652
1.652
1.642
1.642
1.662
1.667
1.642
1.642
1.657
1.662
1.657
1.657
1.676
1.691
1.681
1.676
1.696
1.711
1.706
1.696
1.696
1.706
1.691
1.672
1.672
1.681
1.672
1.662
1.657
1.667
1.667
1.637
1.637
1.652
1.652
1.637
1.623
1.628
1.632
1.613
1.603
1.623
1.632
1.628
1.623
1.628
1.637
1.628
1.603
1.613
1.628
1.628
1.618
1.623
1.637
1.642
1.618
1.618
1.637
1.637
1.628
1.618
1.618
1.613
1.579
1.559
1.559
1.559
1.544
1.53
1.544
1.588
1.623
1.672
1.76
1.862
1.96
2.048
2.136
2.229
2.278
2.278
2.263
2.239
2.175
2.077
1.97
1.867
1.769
1.657
1.574
1.525
1.491
1.452
1.427
1.432
1.457
1.461
1.466
1.496
1.535
1.559
1.574
1.593
1.623
1.632
1.618
1.623
1.642
1.642
1.632
1.628
1.642
1.652
1.637
1.632
1.652
1.662
1.657
1.647
1.652
1.667
1.657
1.637
1.652
1.667
1.662
1.662
1.662
1.681
1.676
1.652
1.652
1.672
1.672
1.667
1.667
1.686
1.701
1.686
1.681
1.691
1.701
1.696
1.686
1.696
1.716
1.711
1.696
1.711
1.73
1.73
1.72
1.72
1.735
1.74
1.725
1.73
1.755
1.764
1.769
1.769
1.789
1.808
1.794
1.794
1.818
1.833
1.838
1.838
1.848
1.867
1.857
1.843
1.857
1.882
1.882
1.887
1.896
1.921
1.926
1.906
1.911
1.926
1.926
1.911
1.891
1.896
1.896
1.877
1.867
1.877
1.877
1.862
1.843
1.833
1.833
1.808
1.784
1.779
1.779
1.764
1.74
1.72
1.72
1.711
1.672
1.662
1.662
1.657
1.642
1.632
1.642
1.647
1.623
1.613
1.623
1.628
1.618
1.608
1.608
1.623
1.608
1.588
1.598
1.613
1.608
1.593
1.593
1.603
1.603
1.579
1.588
1.608
1.613
1.603
1.598
1.618
1.628
1.613
1.603
1.613
1.618
1.608
1.593
1.593
1.608
1.593
1.574
1.588
1.608
1.613
1.608
1.613
1.632
1.632
1.608
1.608
1.623
1.623
1.618
1.613
1.623
1.632
1.608
1.603
1.613
1.618
1.603
1.593
1.603
1.618
1.613
1.598
1.613
1.628
1.628
1.623
1.623
1.637
1.632
1.613
1.618
1.632
1.632
1.628
1.618
1.632
1.642
1.623
1.618
1.632
1.642
1.632
1.623
1.628
1.647
1.637
1.623
1.632
1.647
1.642
1.632
1.628
1.642
1.637
1.613
1.623
1.642
1.647
1.647
1.637
1.647
1.652
1.628
1.613
1.628
1.632
1.628
1.613
1.623
1.642
1.632
1.618
1.628
1.637
1.632
1.618
1.618
1.637
1.637
1.618
1.628
1.652
1.657
1.647
1.637
1.652
1.657
1.642
1.632
1.652
1.662
1.652
1.647
1.662
1.681
1.667
1.647
1.657
1.672
1.672
1.667
1.676
1.696
1.696
1.681
1.686
1.706
1.711
1.701
1.696
1.711
1.72
1.696
1.681
1.691
1.686
1.672
1.652
1.647
1.657
1.637
1.618
1.628
1.642
1.642
1.632
1.628
1.642
1.642
1.618
1.623
1.637
1.642
1.632
1.628
1.637
1.642
1.623
1.613
1.628
1.632
1.623
1.608
1.618
1.632
1.623
1.613
1.623
1.642
1.637
1.618
1.613
1.618
1.603
1.569
1.559
1.564
1.554
1.549
1.559
1.603
1.667
1.725
1.804
1.921
2.028
2.116
2.185
2.248
2.287
2.273
2.224
2.185
2.121
2.028
1.921
1.818
1.735
1.642
1.549
1.5
1.481
1.457
1.442
1.442
1.466
1.491
1.491
1.51
1.549
1.574
1.588
1.593
1.618
1.642
1.632
1.623
1.637
1.657
1.652
1.642
1.642
1.662
1.657
1.637
1.642
1.657
1.662
1.657
1.652
1.672
1.686
1.667
1.667
1.681
1.691
1.681
1.672
1.676
1.691
1.681
1.672
1.686
1.701
1.696
1.686
1.691
1.711
1.711
1.691
1.696
1.711
1.711
1.701
1.701
1.711
1.725
1.706
1.706
1.725
1.74
1.74
1.735
1.745
1.764
1.755
1.745
1.764
1.784
1.789
1.784
1.789
1.808
1.813
1.799
1.808
1.838
1.848
1.852
1.862
1.887
1.901
1.887
1.887
1.906
1.911
1.911
1.906
1.916
1.935
1.926
1.911
1.916
1.926
1.916
1.906
1.901
1.911
1.901
1.872
1.867
1.877
1.867
1.848
1.828
1.823
1.818
1.784
1.764
1.764
1.755
1.73
1.711
1.711
1.716
1.691
1.667
1.672
1.676
1.662
1.642
1.637
1.647
1.642
1.618
1.623
1.637
1.632
1.618
1.608
1.618
1.623
1.598
1.593
1.618
1.623
1.623
1.613
1.618
1.628
1.613
1.593
1.603
1.613
1.608
1.598
1.598
1.613
1.608
1.588
1.593
1.608
1.608
1.598
1.598
1.618
1.628
1.608
1.608
1.623
1.632
1.623
1.618
1.628
1.637
1.623
1.603
1.613
1.628
1.623
1.613
1.613
1.632
1.632
1.613
1.623
1.642
1.637
1.628
1.623
1.632
1.637
1.618
1.613
1.628
1.637
1.628
1.623
1.632
1.642
1.632
1.618
1.628
1.642
1.637
1.623
1.628
1.642
1.642
1.618
1.623
1.637
1.637
1.628
1.628
1.642
1.657
1.637
1.637
1.657
1.657
1.652
1.642
1.647
1.652
1.637
1.618
1.632
1.647
1.647
1.637
1.637
1.652
1.642
1.618
1.623
1.642
1.642
1.637
1.632
1.647
1.657
1.637
1.637
1.652
1.657
1.652
1.642
1.657
1.676
1.667
1.647
1.662
1.672
1.662
1.652
1.652
1.662
1.662
1.642
1.657
1.681
1.696
1.696
1.701
1.72
1.725
1.701
1.696
1.711
1.716
1.706
1.696
1.696
1.706
1.686
1.667
1.676
1.681
1.667
1.652
1.647
1.662
1.652
1.628
1.632
1.642
1.637
1.628
1.623
1.637
1.647
1.632
1.632
1.657
1.662
1.652
1.642
1.647
1.657
1.637
1.618
1.628
1.637
1.632
1.623
1.628
1.647
1.647
1.628
1.628
1.642
1.632
1.608
1.588
1.584
1.574
1.544
1.544
1.569
1.603
1.642
1.701
1.794
1.896
1.979
2.058
2.151
2.224
2.253
2.248
2.224
2.185
2.102
1.984
1.891
1.804
1.711
1.623
1.554
1.52
1.491
1.457
1.447
1.461
1.471
1.471
1.481
1.51
1.549
1.554
1.569
1.603
1.632
1.642
1.642
1.642
1.662
1.652
1.632
1.642
1.662
1.667
1.667
1.667
1.686
1.691
1.667
1.662
1.676
1.681
1.672
1.662
1.672
1.686
1.672
1.657
1.672
1.691
1.686
1.681
1.686
1.706
1.701
1.681
1.691
1.711
1.716
1.706
1.706
1.716
1.72
1.696
1.696
1.711
1.716
1.711
1.706
1.72
1.74
1.73
1.72
1.74
1.76
1.76
1.755
1.764
1.789
1.789
1.779
1.794
1.818
1.823
1.818
1.818
1.838
1.848
1.838
1.848
1.872
1.882
1.882
1.887
1.901
1.916
1.906
1.896
1.916
1.931
1.926
1.916
1.921
1.94
1.935
1.916
1.926
1.935
1.931
1.906
1.896
1.896
1.891
1.857
1.843
1.848
1.838
1.818
1.804
1.799
1.799
1.764
1.735
1.735
1.735
1.72
1.701
1.696
1.701
1.686
1.657
1.657
1.662
1.652
1.637
1.632
1.647
1.647
1.623
1.613
1.628
1.628
1.618
1.603
1.608
1.618
1.598
1.593
1.608
1.623
1.618
1.608
1.618
1.632
1.623
1.603
1.613
1.628
1.623
1.613
1.608
1.623
1.628
1.608
1.608
1.623
1.628
1.623
1.613
1.623
1.632
1.613
1.603
1.618
1.632
1.632
1.628
1.637
1.652
1.647
1.623
1.632
1.642
1.637
1.623
1.618
1.628
1.632
1.618
1.623
1.642
1.647
1.642
1.632
1.642
1.647
1.628
1.613
1.628
1.642
1.637
1.628
1.637
1.657
1.652
1.632
1.642
1.657
1.652
1.642
1.637
1.652
1.657
1.632
1.632
1.652
1.657
1.652
1.642
1.652
1.662
1.647
1.628
1.637
1.647
1.642
1.632
1.637
1.652
1.647
1.632
1.642
1.657
1.657
1.642
1.637
1.652
1.657
1.632
1.628
1.642
1.647
1.637
1.632
1.642
1.652
1.637
1.632
1.652
1.667
1.662
1.652
1.657
1.667
1.662
1.642
1.652
1.667
1.672
1.662
1.662
1.681
1.691
1.676
1.681
1.706
1.711
1.706
1.701
1.711
1.72
1.701
1.686
1.696
1.701
1.686
1.672
1.667
1.681
1.672
1.647
1.652
1.667
1.662
1.647
1.637
1.647
1.647
1.623
1.623
1.642
1.647
1.647
1.642
1.652
1.657
1.637
1.623
1.637
1.647
1.642
1.632
1.637
1.652
1.642
1.623
1.632
1.647
1.647
1.637
1.628
1.637
1.637
1.608
1.603
1.608
1.603
1.579
1.559
1.564
1.584
1.588
1.623
1.696
1.784
1.872
1.96
2.053
2.146
2.195
2.204
2.209
2.19
2.136
2.053
1.965
1.882
1.789
1.681
1.603
1.564
1.525
1.486
1.461
1.466
1.476
1.461
1.461
1.486
1.51
1.525
1.54
1.569
1.608
1.623
1.623
1.642
1.662
1.662
1.652
1.652
1.667
1.672
1.647
1.652
1.672
1.681
1.667
1.657
1.662
1.676
1.652
1.642
1.662
1.672
1.672
1.662
1.672
1.691
1.686
1.672
1.681
1.701
1.701
1.696
1.696
1.711
1.716
1.696
1.696
1.711
1.716
1.711
1.706
1.716
1.73
1.716
1.706
1.725
1.74
1.74
1.735
1.745
1.76
1.755
1.74
1.755
1.774
1.774
1.769
1.774
1.794
1.804
1.794
1.804
1.833
1.843
1.838
1.838
1.852
1.867
1.852
1.843
1.867
1.882
1.887
1.891
1.906
1.931
1.926
1.911
1.921
1.931
1.931
1.921
1.916
1.931
1.926
1.896
1.891
1.901
1.896
1.882
1.862
1.862
1.857
1.823
1.799
1.794
1.789
1.764
1.74
1.73
1.73
1.716
1.691
1.691
1.706
1.696
1.672
1.662
1.667
1.667
1.637
1.632
1.642
1.637
1.628
1.613
1.613
1.623
1.603
1.588
1.598
1.608
1.598
1.593
1.598
1.613
1.603
1.588
1.603
1.623
1.618
1.613
1.613
1.628
1.628
1.603
1.593
1.608
1.608
1.598
1.584
1.593
1.608
1.593
1.593
1.608
1.623
1.623
1.618
1.628
1.642
1.632
1.608
1.613
1.623
1.623
1.613
1.608
1.628
1.632
1.608
1.613
1.632
1.632
1.628
1.623
1.632
1.642
1.623
1.618
1.632
1.637
1.632
1.618
1.618
1.632
1.623
1.608
1.618
1.637
1.637
1.628
1.628
1.642
1.642
1.623
1.623
1.642
1.647
1.642
1.637
1.642
1.652
1.632
1.623
1.632
1.637
1.632
1.623
1.628
1.642
1.632
1.613
1.623
1.642
1.637
1.628
1.628
1.647
1.647
1.628
1.628
1.652
1.657
1.647
1.642
1.652
1.662
1.642
1.628
1.637
1.647
1.637
1.632
1.637
1.657
1.652
1.637
1.647
1.657
1.657
1.652
1.657
1.681
1.691
1.672
1.676
1.696
1.701
1.691
1.686
1.696
1.701
1.681
1.672
1.686
1.691
1.681
1.667
1.662
1.672
1.657
1.632
1.637
1.647
1.647
1.637
1.632
1.652
1.652
1.632
1.632
1.652
1.652
1.637
1.628
1.637
1.647
1.623
1.613
1.628
1.637
1.628
1.623
1.628
1.642
1.632
1.613
1.628
1.647
1.647
1.632
1.628
1.637
1.628
1.593
1.584
1.588
1.579
1.559
1.544
1.554
1.574
1.579
1.613
1.686
1.769
1.852
1.931
2.019
2.111
2.16
2.175
2.185
2.17
2.116
2.033
1.945
1.867
1.774
1.667
1.593
1.554
1.52
1.481
1.461
1.461
1.466
1.447
1.447
1.476
1.505
1.52
1.535
1.564
1.603
1.613
1.613
1.632
1.652
1.657
1.647
1.647
1.662
1.662
1.637
1.637
1.652
1.657
1.647
1.642
1.652
1.667
1.652
1.647
1.667
1.676
1.667
1.657
1.667
1.686
1.681
1.667
1.676
1.696
1.691
1.681
1.681
1.701
1.701
1.681
1.681
1.706
1.711
1.706
1.701
1.711
1.72
1.701
1.691
1.706
1.725
1.725
1.725
1.735
1.755
1.75
1.735
1.745
1.764
1.764
1.76
1.76
1.779
1.784
1.769
1.779
1.804
1.813
1.813
1.818
1.838
1.857
1.852
1.852
1.877
1.891
1.891
1.887
1.891
1.911
1.906
1.896
1.906
1.921
1.921
1.911
1.906
1.916
1.916
1.887
1.887
1.896
1.891
1.872
1.857
1.857
1.852
1.818
1.794
1.794
1.789
1.769
1.75
1.74
1.745
1.72
1.691
1.686
1.691
1.676
1.657
1.647
1.662
1.652
1.628
1.623
1.637
1.632
1.618
1.603
1.608
1.613
1.593
1.584
1.603
1.618
1.613
1.608
1.613
1.632
1.618
1.598
1.608
1.623
1.623
1.613
1.608
1.628
1.623
1.598
1.598
1.613
1.608
1.598
1.593
1.608
1.623
1.603
1.593
1.613
1.623
1.618
1.613
1.618
1.632
1.618
1.598
1.608
1.623
1.618
1.603
1.598
1.613
1.613
1.593
1.598
1.618
1.623
1.618
1.613
1.628
1.637
1.618
1.608
1.623
1.632
1.628
1.618
1.623
1.637
1.628
1.613
1.623
1.642
1.637
1.628
1.632
1.647
1.647
1.623
1.623
1.642
1.647
1.632
1.623
1.632
1.642
1.623
1.618
1.632
1.642
1.637
1.628
1.632
1.642
1.632
1.613
1.623
1.637
1.637
1.628
1.628
1.642
1.642
1.623
1.623
1.642
1.642
1.632
1.628
1.637
1.652
1.632
1.623
1.642
1.652
1.642
1.632
1.637
1.652
1.642
1.623
1.637
1.652
1.652
1.647
1.652
1.667
1.667
1.642
1.642
1.657
1.662
1.662
1.657
1.676
1.696
1.681
1.681
1.696
1.706
1.696
1.681
1.681
1.696
1.681
1.662
1.672
1.686
1.676
1.662
1.657
1.662
1.657
1.623
1.613
1.628
1.628
1.623
1.618
1.632
1.642
1.628
1.628
1.647
1.657
1.652
1.637
1.637
1.647
1.632
1.613
1.623
1.637
1.632
1.623
1.623
1.637
1.637
1.613
1.613
1.628
1.628
1.618
1.603
1.613
1.613
1.588
1.569
1.579
1.588
1.588
1.608
1.657
1.735
1.808
1.877
1.975
2.067
2.131
2.17
2.185
2.19
2.151
2.067
1.984
1.916
1.823
1.725
1.642
1.593
1.549
1.496
1.466
1.471
1.476
1.476
1.471
1.486
1.51
1.515
1.515
1.549
1.584
1.603
1.618
1.632
1.657
1.662
1.637
1.637
1.657
1.662
1.652
1.647
1.662
1.676
1.662
1.657
1.672
1.686
1.681
1.672
1.676
1.686
1.676
1.657
1.667
1.686
1.681
1.672
1.672
1.686
1.691
1.676
1.681
1.701
1.706
1.696
1.691
1.706
1.716
1.696
1.686
1.701
1.711
1.711
1.706
1.716
1.735
1.725
1.706
1.716
1.735
1.73
1.73
1.735
1.755
1.76
1.74
1.75
1.774
1.784
1.789
1.789
1.808
1.823
1.813
1.808
1.833
1.848
1.852
1.852
1.862
1.887
1.882
1.872
1.882
1.896
1.896
1.887
1.887
1.901
1.906
1.887
1.887
1.906
1.911
1.896
1.887
1.887
1.891
1.862
1.848
1.852
1.848
1.828
1.799
1.789
1.789
1.76
1.725
1.72
1.725
1.711
1.696
1.686
1.691
1.681
1.652
1.647
1.657
1.657
1.642
1.628
1.632
1.637
1.613
1.603
1.618
1.628
1.618
1.608
1.613
1.628
1.613
1.588
1.593
1.608
1.603
1.593
1.593
1.613
1.618
1.593
1.593
1.613
1.613
1.603
1.598
1.608
1.618
1.598
1.588
1.608
1.623
1.618
1.608
1.613
1.628
1.618
1.598
1.608
1.618
1.618
1.608
1.608
1.623
1.618
1.598
1.603
1.623
1.628
1.623
1.618
1.628
1.637
1.613
1.608
1.623
1.632
1.628
1.613
1.618
1.637
1.628
1.613
1.623
1.637
1.632
1.623
1.623
1.637
1.637
1.623
1.628
1.642
1.652
1.642
1.637
1.642
1.647
1.623
1.608
1.618
1.632
1.628
1.623
1.632
1.652
1.642
1.623
1.628
1.637
1.632
1.618
1.618
1.637
1.642
1.623
1.628
1.647
1.652
1.647
1.642
1.652
1.657
1.632
1.623
1.632
1.642
1.632
1.623
1.628
1.642
1.628
1.613
1.623
1.642
1.642
1.637
1.637
1.652
1.657
1.642
1.642
1.662
1.667
1.662
1.662
1.676
1.691
1.676
1.667
1.686
1.696
1.686
1.676
1.676
1.686
1.672
1.647
1.662
1.676
1.672
1.657
1.657
1.672
1.672
1.647
1.642
1.652
1.647
1.632
1.618
1.623
1.632
1.613
1.608
1.628
1.637
1.632
1.628
1.637
1.652
1.642
1.623
1.632
1.647
1.647
1.632
1.628
1.642
1.637
1.613
1.613
1.628
1.628
1.618
1.608
1.618
1.618
1.588
1.569
1.569
1.569
1.559
1.554
1.574
1.628
1.672
1.725
1.823
1.931
2.019
2.092
2.155
2.204
2.209
2.165
2.121
2.072
1.989
1.887
1.789
1.716
1.647
1.569
1.515
1.496
1.486
1.466
1.457
1.466
1.491
1.496
1.491
1.525
1.559
1.584
1.593
1.613
1.642
1.652
1.637
1.637
1.652
1.652
1.642
1.637
1.652
1.667
1.647
1.642
1.662
1.672
1.667
1.657
1.662
1.676
1.667
1.647
1.657
1.672
1.667
1.657
1.657
1.676
1.681
1.662
1.662
1.681
1.686
1.676
1.672
1.681
1.691
1.672
1.667
1.686
1.706
1.706
1.701
1.711
1.73
1.725
1.716
1.725
1.745
1.74
1.735
1.735
1.75
1.755
1.735
1.74
1.76
1.769
1.764
1.76
1.779
1.794
1.789
1.789
1.818
1.843
1.848
1.848
1.867
1.887
1.877
1.862
1.877
1.891
1.891
1.887
1.887
1.901
1.901
1.877
1.877
1.896
1.901
1.896
1.891
1.896
1.901
1.867
1.848
1.848
1.843
1.823
1.804
1.799
1.799
1.774
1.745
1.74
1.74
1.725
1.711
1.701
1.706
1.696
1.672
1.662
1.672
1.662
1.647
1.632
1.637
1.642
1.623
1.608
1.623
1.632
1.628
1.613
1.618
1.628
1.618
1.598
1.603
1.618
1.618
1.608
1.603
1.618
1.623
1.603
1.603
1.618
1.618
1.608
1.598
1.608
1.613
1.593
1.584
1.598
1.613
1.613
1.603
1.603
1.623
1.608
1.588
1.598
1.618
1.618
1.613
1.613
1.628
1.628
1.603
1.598
1.613
1.618
1.613
1.613
1.628
1.642
1.628
1.623
1.637
1.647
1.637
1.623
1.623
1.637
1.623
1.603
1.618
1.632
1.632
1.623
1.618
1.632
1.637
1.618
1.623
1.637
1.642
1.642
1.637
1.652
1.662
1.637
1.623
1.637
1.642
1.637
1.623
1.623
1.637
1.628
1.613
1.623
1.632
1.632
1.628
1.628
1.642
1.642
1.618
1.618
1.632
1.637
1.632
1.628
1.637
1.652
1.632
1.623
1.637
1.647
1.642
1.628
1.632
1.642
1.632
1.613
1.618
1.632
1.632
1.628
1.628
1.642
1.647
1.628
1.632
1.652
1.662
1.652
1.647
1.657
1.672
1.652
1.647
1.662
1.676
1.672
1.662
1.667
1.686
1.676
1.657
1.672
1.686
1.691
1.686
1.686
1.706
1.711
1.686
1.681
1.691
1.691
1.676
1.662
1.662
1.662
1.642
1.628
1.642
1.652
1.647
1.632
1.637
1.647
1.632
1.613
1.618
1.632
1.632
1.628
1.628
1.647
1.652
1.628
1.628
1.642
1.642
1.637
1.628
1.637
1.642
1.623
1.613
1.628
1.637
1.628
1.613
1.608
1.618
1.598
1.569
1.569
1.569
1.564
1.549
1.564
1.603
1.652
1.696
1.769
1.877
1.97
2.048
2.116
2.18
2.219
2.204
2.165
2.131
2.077
1.994
1.896
1.808
1.735
1.647
1.564
1.525
1.505
1.481
1.461
1.457
1.481
1.496
1.496
1.51
1.544
1.564
1.579
1.593
1.628
1.647
1.637
1.632
1.642
1.652
1.642
1.632
1.637
1.652
1.642
1.628
1.642
1.662
1.662
1.657
1.652
1.662
1.667
1.647
1.647
1.667
1.681
1.676
1.672
1.686
1.701
1.681
1.672
1.681
1.686
1.676
1.667
1.672
1.686
1.681
1.667
1.681
1.706
1.711
1.706
1.706
1.72
1.725
1.701
1.701
1.72
1.73
1.725
1.716
1.73
1.745
1.73
1.725
1.745
1.764
1.769
1.769
1.779
1.804
1.799
1.784
1.789
1.808
1.813
1.813
1.823
1.848
1.862
1.848
1.862
1.882
1.891
1.887
1.882
1.891
1.906
1.887
1.877
1.896
1.906
1.901
1.891
1.891
1.901
1.882
1.857
1.852
1.857
1.848
1.828
1.813
1.813
1.804
1.764
1.75
1.755
1.745
1.725
1.706
1.706
1.711
1.681
1.662
1.667
1.667
1.657
1.637
1.632
1.642
1.628
1.603
1.608
1.623
1.623
1.618
1.613
1.623
1.628
1.603
1.598
1.613
1.613
1.603
1.593
1.603
1.613
1.588
1.574
1.588
1.603
1.603
1.598
1.608
1.628
1.623
1.603
1.608
1.623
1.618
1.608
1.603
1.618
1.623
1.603
1.603
1.618
1.623
1.613
1.603
1.613
1.628
1.608
1.593
1.608
1.623
1.618
1.608
1.613
1.632
1.628
1.608
1.618
1.637
1.637
1.628
1.623
1.637
1.642
1.618
1.618
1.632
1.637
1.628
1.618
1.628
1.637
1.618
1.603
1.618
1.632
1.632
1.628
1.632
1.647
1.642
1.618
1.623
1.642
1.637
1.628
1.628
1.642
1.642
1.623
1.623
1.642
1.647
1.637
1.632
1.637
1.647
1.623
1.608
1.618
1.628
1.623
1.613
1.618
1.632
1.632
1.613
1.618
1.632
1.632
1.628
1.628
1.642
1.642
1.623
1.618
1.637
1.642
1.637
1.628
1.637
1.652
1.637
1.628
1.637
1.647
1.642
1.632
1.642
1.662
1.657
1.632
1.637
1.652
1.647
1.637
1.637
1.657
1.662
1.642
1.642
1.667
1.676
1.676
1.672
1.681
1.696
1.681
1.672
1.691
1.706
1.701
1.686
1.686
1.696
1.686
1.662
1.672
1.681
1.681
1.667
1.657
1.657
1.652
1.623
1.613
1.628
1.632
1.628
1.623
1.637
1.657
1.642
1.628
1.632
1.642
1.632
1.623
1.623
1.637
1.632
1.613
1.623
1.637
1.637
1.628
1.623
1.637
1.642
1.618
1.613
1.628
1.632
1.618
1.598
1.598
1.603
1.579
1.554
1.564
1.574
1.579
1.588
1.632
1.706
1.769
1.833
1.931
2.038
2.126
2.185
2.224
2.253
2.243
2.18
2.111
2.048
1.97
1.872
1.769
1.696
1.632
1.554
1.5
1.486
1.481
1.471
1.461
1.476
1.5
1.515
1.505
1.53
1.564
1.593
1.608
1.628
1.657
1.667
1.652
1.642
1.657
1.652
1.637
1.623
1.628
1.642
1.632
1.628
1.647
1.662
1.667
1.657
1.667
1.681
1.676
1.657
1.662
1.681
1.681
1.672
1.667
1.676
1.681
1.662
1.657
1.676
1.691
1.686
1.686
1.701
1.716
1.701
1.686
1.701
1.711
1.706
1.696
1.696
1.711
1.711
1.691
1.706
1.72
1.725
1.72
1.725
1.745
1.755
1.74
1.74
1.764
1.779
1.774
1.769
1.784
1.799
1.794
1.789
1.813
1.833
1.843
1.843
1.852
1.872
1.872
1.852
1.862
1.877
1.882
1.882
1.882
1.896
1.901
1.882
1.882
1.901
1.906
1.896
1.887
1.891
1.896
1.877
1.852
1.857
1.857
1.838
1.813
1.804
1.804
1.784
1.74
1.725
1.725
1.711
1.686
1.676
1.676
1.676
1.652
1.642
1.657
1.667
1.652
1.637
1.642
1.647
1.628
1.613
1.623
1.632
1.623
1.613
1.608
1.618
1.608
1.579
1.584
1.593
1.598
1.593
1.603
1.623
1.637
1.618
1.613
1.628
1.628
1.618
1.603
1.608
1.618
1.603
1.588
1.603
1.618
1.618
1.608
1.608
1.623
1.618
1.598
1.603
1.618
1.623
1.613
1.608
1.623
1.623
1.603
1.603
1.623
1.632
1.632
1.628
1.637
1.652
1.637
1.613
1.623
1.632
1.628
1.618
1.613
1.628
1.623
1.603
1.613
1.632
1.632
1.628
1.623
1.637
1.642
1.623
1.618
1.637
1.647
1.642
1.637
1.647
1.657
1.642
1.623
1.632
1.642
1.637
1.623
1.628
1.642
1.642
1.618
1.628
1.642
1.642
1.632
1.628
1.642
1.652
1.628
1.628
1.647
1.657
1.647
1.632
1.637
1.647
1.632
1.613
1.628
1.642
1.642
1.632
1.637
1.652
1.652
1.632
1.632
1.647
1.647
1.642
1.637
1.647
1.652
1.628
1.623
1.637
1.647
1.642
1.637
1.647
1.667
1.652
1.637
1.647
1.662
1.657
1.652
1.647
1.662
1.662
1.642
1.647
1.662
1.662
1.652
1.647
1.662
1.676
1.657
1.657
1.676
1.691
1.691
1.691
1.701
1.72
1.711
1.691
1.701
1.716
1.711
1.696
1.696
1.706
1.701
1.672
1.672
1.686
1.681
1.672
1.662
1.672
1.672
1.647
1.632
1.647
1.652
1.642
1.632
1.642
1.657
1.647
1.632
1.652
1.672
1.667
1.657
1.652
1.662
1.657
1.628
1.628
1.642
1.642
1.632
1.628
1.637
1.647
1.628
1.618
1.632
1.637
1.618
1.603
1.598
1.608
1.584
1.564
1.569
1.588
1.603
1.628
1.676
1.764
1.848
1.921
2.014
2.121
2.204
2.253
2.278
2.283
2.258
2.18
2.097
2.023
1.931
1.823
1.716
1.642
1.588
1.525
1.471
1.461
1.466
1.466
1.471
1.486
1.525
1.549
1.554
1.579
1.613
1.632
1.637
1.637
1.652
1.662
1.637
1.623
1.637
1.652
1.647
1.647
1.657
1.667
1.657
1.642
1.657
1.672
1.672
1.667
1.667
1.681
1.681
1.657
1.657
1.676
1.681
1.676
1.672
1.686
1.701
1.681
1.672
1.686
1.696
1.691
1.681
1.691
1.706
1.696
1.676
1.691
1.711
1.711
1.706
1.711
1.73
1.735
1.716
1.72
1.74
1.745
1.74
1.735
1.75
1.769
1.755
1.75
1.769
1.784
1.784
1.784
1.799
1.823
1.818
1.808
1.828
1.852
1.857
1.852
1.857
1.882
1.887
1.872
1.882
1.901
1.911
1.906
1.901
1.911
1.916
1.891
1.882
1.896
1.901
1.896
1.887
1.891
1.896
1.877
1.848
1.843
1.843
1.823
1.794
1.779
1.784
1.769
1.735
1.73
1.735
1.73
1.716
1.696
1.696
1.696
1.667
1.652
1.662
1.667
1.657
1.647
1.647
1.657
1.637
1.608
1.613
1.623
1.618
1.603
1.598
1.618
1.618
1.598
1.608
1.623
1.628
1.618
1.613
1.623
1.628
1.608
1.598
1.613
1.623
1.618
1.608
1.613
1.628
1.618
1.598
1.613
1.628
1.628
1.618
1.618
1.628
1.628
1.608
1.608
1.623
1.628
1.618
1.613
1.628
1.637
1.618
1.608
1.623
1.637
1.632
1.623
1.628
1.647
1.637
1.618
1.628
1.642
1.637
1.623
1.623
1.637
1.642
1.618
1.623
1.642
1.647
1.632
1.623
1.632
1.642
1.618
1.608
1.628
1.642
1.637
1.632
1.642
1.657
1.647
1.628
1.637
1.647
1.647
1.632
1.632
1.647
1.647
1.623
1.628
1.642
1.647
1.637
1.632
1.642
1.647
1.628
1.618
1.632
1.647
1.647
1.637
1.637
1.652
1.637
1.618
1.628
1.642
1.637
1.632
1.632
1.652
1.652
1.628
1.628
1.642
1.647
1.637
1.632
1.642
1.657
1.637
1.628
1.642
1.657
1.652
1.647
1.647
1.662
1.652
1.632
1.642
1.657
1.657
1.647
1.647
1.662
1.662
1.642
1.647
1.667
1.667
1.662
1.657
1.667
1.681
1.662
1.652
1.672
1.686
1.686
1.681
1.686
1.706
1.701
1.686
1.701
1.72
1.72
1.716
1.711
1.72
1.72
1.686
1.676
1.681
1.676
1.667
1.652
1.662
1.667
1.647
1.628
1.642
1.647
1.642
1.632
1.637
1.657
1.652
1.637
1.647
1.667
1.662
1.647
1.632
1.642
1.642
1.623
1.628
1.647
1.652
1.647
1.642
1.652
1.662
1.632
1.618
1.623
1.632
1.623
1.603
1.598
1.603
1.579
1.549
1.554
1.569
1.584
1.608
1.662
1.75
1.838
1.906
2.004
2.111
2.195
2.248
2.273
2.283
2.268
2.199
2.116
2.043
1.95
1.843
1.735
1.652
1.593
1.525
1.466
1.452
1.452
1.452
1.452
1.466
1.5
1.53
1.535
1.559
1.598
1.623
1.632
1.637
1.662
1.676
1.657
1.642
1.657
1.667
1.662
1.652
1.657
1.667
1.657
1.637
1.647
1.662
1.667
1.662
1.657
1.676
1.676
1.652
1.657
1.676
1.691
1.691
1.691
1.706
1.72
1.701
1.691
1.701
1.706
1.691
1.681
1.681
1.696
1.691
1.676
1.691
1.711
1.716
1.716
1.716
1.735
1.74
1.716
1.716
1.73
1.74
1.74
1.74
1.755
1.774
1.764
1.755
1.779
1.794
1.799
1.794
1.808
1.833
1.828
1.813
1.828
1.848
1.857
1.852
1.852
1.877
1.887
1.877
1.887
1.911
1.921
1.921
1.916
1.926
1.94
1.921
1.906
1.916
1.921
1.906
1.891
1.887
1.896
1.882
1.852
1.852
1.857
1.848
1.823
1.804
1.804
1.794
1.755
1.74
1.745
1.74
1.72
1.701
1.701
1.701
1.676
1.652
1.657
1.662
1.652
1.642
1.642
1.652
1.642
1.613
1.613
1.623
1.618
1.603
1.598
1.613
1.613
1.588
1.588
1.613
1.618
1.618
1.608
1.618
1.628
1.608
1.593
1.608
1.618
1.613
1.598
1.598
1.618
1.613
1.593
1.608
1.628
1.632
1.628
1.623
1.637
1.637
1.608
1.603
1.623
1.628
1.618
1.608
1.618
1.632
1.613
1.603
1.618
1.632
1.628
1.623
1.628
1.642
1.637
1.618
1.623
1.632
1.632
1.623
1.623
1.637
1.642
1.623
1.628
1.642
1.647
1.642
1.628
1.632
1.637
1.618
1.603
1.618
1.632
1.632
1.623
1.632
1.652
1.642
1.623
1.628
1.642
1.642
1.632
1.628
1.647
1.652
1.637
1.632
1.647
1.647
1.642
1.637
1.642
1.647
1.632
1.618
1.628
1.642
1.642
1.632
1.637
1.652
1.647
1.623
1.632
1.642
1.642
1.632
1.628
1.642
1.647
1.628
1.628
1.642
1.647
1.642
1.628
1.632
1.647
1.628
1.618
1.632
1.647
1.642
1.637
1.647
1.667
1.662
1.642
1.647
1.662
1.662
1.647
1.642
1.652
1.657
1.637
1.637
1.657
1.672
1.676
1.676
1.696
1.716
1.706
1.691
1.696
1.706
1.701
1.691
1.691
1.706
1.706
1.686
1.691
1.711
1.716
1.701
1.696
1.701
1.701
1.672
1.662
1.672
1.667
1.652
1.637
1.637
1.647
1.632
1.618
1.637
1.657
1.657
1.647
1.652
1.667
1.657
1.632
1.632
1.647
1.647
1.642
1.637
1.647
1.647
1.623
1.618
1.637
1.647
1.647
1.642
1.652
1.662
1.637
1.608
1.608
1.603
1.579
1.554
1.549
1.559
1.569
1.574
1.628
1.716
1.799
1.887
1.984
2.092
2.185
2.229
2.263
2.292
2.278
2.224
2.141
2.058
1.965
1.848
1.73
1.652
1.593
1.53
1.476
1.452
1.452
1.447
1.432
1.447
1.486
1.51
1.535
1.559
1.603
1.632
1.628
1.632
1.657
1.667
1.657
1.647
1.647
1.662
1.647
1.632
1.647
1.667
1.672
1.667
1.672
1.681
1.676
1.652
1.652
1.667
1.667
1.657
1.657
1.681
1.701
1.686
1.681
1.701
1.706
1.701
1.691
1.701
1.711
1.696
1.681
1.691
1.706
1.701
1.686
1.686
1.706
1.706
1.686
1.701
1.72
1.73
1.72
1.72
1.735
1.745
1.725
1.725
1.745
1.76
1.76
1.76
1.774
1.794
1.789
1.784
1.799
1.823
1.828
1.828
1.838
1.862
1.867
1.852
1.862
1.882
1.887
1.887
1.887
1.906
1.916
1.901
1.896
1.916
1.926
1.921
1.916
1.921
1.931
1.916
1.896
1.901
1.906
1.891
1.872
1.857
1.857
1.838
1.804
1.794
1.794
1.784
1.764
1.75
1.75
1.745
1.711
1.696
1.701
1.696
1.676
1.657
1.657
1.662
1.642
1.618
1.628
1.637
1.637
1.628
1.628
1.632
1.628
1.598
1.598
1.618
1.618
1.613
1.608
1.623
1.632
1.608
1.598
1.608
1.613
1.603
1.593
1.598
1.613
1.603
1.588
1.603
1.618
1.613
1.608
1.608
1.618
1.618
1.593
1.598
1.618
1.618
1.608
1.598
1.613
1.623
1.608
1.603
1.623
1.632
1.628
1.623
1.628
1.642
1.628
1.608
1.613
1.632
1.628
1.623
1.618
1.632
1.632
1.613
1.618
1.637
1.647
1.637
1.632
1.642
1.652
1.632
1.628
1.642
1.647
1.642
1.632
1.632
1.642
1.628
1.608
1.618
1.632
1.632
1.623
1.623
1.637
1.642
1.618
1.618
1.632
1.637
1.632
1.632
1.647
1.657
1.637
1.628
1.642
1.647
1.637
1.632
1.637
1.652
1.637
1.618
1.628
1.642
1.637
1.628
1.623
1.637
1.632
1.613
1.623
1.647
1.652
1.647
1.642
1.657
1.667
1.642
1.632
1.647
1.657
1.647
1.642
1.642
1.657
1.647
1.632
1.647
1.662
1.652
1.642
1.637
1.652
1.652
1.632
1.632
1.652
1.657
1.652
1.652
1.667
1.686
1.672
1.672
1.691
1.706
1.706
1.701
1.711
1.72
1.706
1.681
1.686
1.696
1.691
1.681
1.676
1.686
1.681
1.652
1.652
1.662
1.662
1.657
1.647
1.657
1.667
1.642
1.628
1.642
1.652
1.642
1.632
1.637
1.652
1.642
1.623
1.632
1.642
1.642
1.632
1.628
1.642
1.642
1.623
1.628
1.647
1.652
1.637
1.628
1.632
1.642
1.613
1.598
1.598
1.598
1.584
1.569
1.564
1.569
1.554
1.549
1.584
1.657
1.725
1.808
1.906
2.019
2.116
2.17
2.229
2.273
2.268
2.229
2.165
2.092
2.009
1.887
1.774
1.696
1.623
1.549
1.496
1.471
1.471
1.457
1.447
1.466
1.491
1.505
1.515
1.53
1.564
1.584
1.579
1.603
1.632
1.652
1.652
1.647
1.657
1.667
1.642
1.637
1.652
1.662
1.662
1.657
1.667
1.681
1.676
1.657
1.672
1.686
1.686
1.676
1.676
1.691
1.691
1.667
1.667
1.686
1.696
1.686
1.681
1.696
1.711
1.691
1.681
1.696
1.711
1.706
1.701
1.711
1.73
1.725
1.706
1.716
1.73
1.73
1.72
1.725
1.745
1.75
1.73
1.735
1.76
1.769
1.764
1.764
1.779
1.794
1.779
1.774
1.794
1.813
1.818
1.818
1.833
1.862
1.862
1.857
1.877
1.901
1.911
1.901
1.901
1.916
1.916
1.896
1.896
1.916
1.926
1.926
1.921
1.935
1.95
1.931
1.916
1.926
1.931
1.911
1.891
1.882
1.877
1.852
1.813
1.804
1.804
1.789
1.774
1.764
1.769
1.76
1.725
1.716
1.72
1.716
1.696
1.676
1.672
1.672
1.642
1.623
1.632
1.642
1.637
1.628
1.628
1.642
1.637
1.618
1.623
1.642
1.637
1.628
1.623
1.632
1.637
1.613
1.608
1.623
1.623
1.613
1.603
1.613
1.623
1.603
1.588
1.603
1.613
1.613
1.608
1.618
1.637
1.632
1.618
1.623
1.632
1.632
1.618
1.613
1.623
1.623
1.593
1.593
1.613
1.623
1.618
1.618
1.628
1.642
1.623
1.613
1.623
1.637
1.632
1.623
1.623
1.642
1.632
1.613
1.623
1.637
1.642
1.637
1.637
1.652
1.657
1.637
1.637
1.652
1.652
1.642
1.632
1.637
1.647
1.628
1.613
1.632
1.642
1.642
1.632
1.637
1.647
1.637
1.618
1.628
1.647
1.647
1.637
1.632
1.647
1.647
1.623
1.618
1.632
1.637
1.632
1.623
1.632
1.642
1.628
1.618
1.637
1.647
1.642
1.632
1.642
1.657
1.652
1.632
1.637
1.652
1.652
1.647
1.642
1.657
1.662
1.637
1.632
1.647
1.657
1.652
1.652
1.667
1.686
1.672
1.662
1.676
1.691
1.686
1.676
1.681
1.696
1.691
1.672
1.686
1.706
1.706
1.696
1.686
1.696
1.696
1.667
1.657
1.667
1.672
1.662
1.652
1.657
1.667
1.642
1.623
1.632
1.642
1.637
1.632
1.637
1.652
1.647
1.628
1.637
1.657
1.657
1.642
1.632
1.642
1.647
1.623
1.623
1.637
1.647
1.642
1.637
1.647
1.657
1.642
1.623
1.637
1.642
1.628
1.608
1.598
1.603
1.584
1.559
1.564
1.588
1.613
1.652
1.711
1.799
1.891
1.96
2.038
2.131
2.19
2.214
2.199
2.175
2.131
2.038
1.931
1.843
1.76
1.667
1.588
1.535
1.51
1.476
1.442
1.447
1.471
1.481
1.486
1.496
1.525
1.549
1.549
1.564
1.598
1.618
1.623
1.623
1.637
1.657
1.642
1.632
1.647
1.667
1.667
1.657
1.662
1.681
1.676
1.657
1.662
1.681
1.681
1.676
1.672
1.686
1.691
1.672
1.662
1.681
1.691
1.686
1.681
1.691
1.706
1.691
1.676
1.691
1.706
1.701
1.696
1.701
1.72
1.72
1.706
1.716
1.735
1.74
1.73
1.725
1.74
1.75
1.725
1.72
1.74
1.75
1.75
1.75
1.764
1.784
1.774
1.76
1.779
1.799
1.799
1.799
1.808
1.833
1.833
1.818
1.833
1.857
1.867
1.872
1.877
1.896
1.911
1.896
1.896
1.916
1.926
1.921
1.911
1.921
1.931
1.916
1.906
1.916
1.926
1.916
1.896
1.891
1.896
1.887
1.852
1.848
1.852
1.838
1.813
1.794
1.789
1.779
1.74
1.725
1.72
1.72
1.701
1.681
1.676
1.681
1.657
1.632
1.637
1.647
1.642
1.628
1.623
1.632
1.628
1.598
1.603
1.618
1.623
1.618
1.613
1.628
1.632
1.608
1.593
1.608
1.608
1.598
1.588
1.598
1.608
1.598
1.584
1.598
1.613
1.618
1.613
1.618
1.637
1.637
1.618
1.623
1.637
1.628
1.613
1.603
1.613
1.618
1.598
1.593
1.613
1.623
1.618
1.613
1.618
1.632
1.618
1.608
1.618
1.637
1.637
1.632
1.632
1.647
1.642
1.613
1.618
1.632
1.632
1.623
1.618
1.628
1.637
1.613
1.603
1.623
1.632
1.628
1.623
1.632
1.647
1.637
1.618
1.632
1.647
1.647
1.637
1.637
1.652
1.652
1.628
1.632
1.647
1.647
1.637
1.628
1.637
1.642
1.613
1.613
1.632
1.647
1.647
1.637
1.647
1.657
1.647
1.628
1.632
1.642
1.632
1.618
1.623
1.637
1.642
1.628
1.632
1.652
1.657
1.652
1.647
1.662
1.667
1.642
1.632
1.652
1.667
1.667
1.662
1.676
1.691
1.681
1.667
1.681
1.701
1.701
1.696
1.691
1.706
1.696
1.667
1.662
1.667
1.662
1.647
1.637
1.642
1.652
1.628
1.623
1.637
1.642
1.632
1.623
1.632
1.647
1.637
1.618
1.632
1.642
1.642
1.628
1.628
1.637
1.637
1.618
1.623
1.642
1.647
1.637
1.628
1.632
1.637
1.613
1.598
1.613
1.623
1.623
1.613
1.618
1.628
1.603
1.564
1.559
1.564
1.569
1.579
1.613
1.681
1.755
1.818
1.911
2.009
2.082
2.131
2.155
2.17
2.155
2.087
2.009
1.945
1.862
1.764
1.676
1.608
1.564
1.51
1.466
1.457
1.466
1.466
1.457
1.466
1.486
1.505
1.5
1.525
1.564
1.593
1.608
1.623
1.647
1.667
1.652
1.647
1.662
1.667
1.657
1.642
1.647
1.662
1.652
1.637
1.652
1.672
1.681
1.676
1.676
1.691
1.691
1.662
1.657
1.672
1.672
1.667
1.672
1.686
1.701
1.686
1.681
1.701
1.716
1.711
1.696
1.701
1.716
1.706
1.691
1.701
1.72
1.716
1.711
1.711
1.725
1.725
1.701
1.711
1.735
1.745
1.745
1.75
1.764
1.784
1.764
1.76
1.779
1.794
1.789
1.784
1.794
1.818
1.813
1.804
1.823
1.852
1.857
1.857
1.867
1.891
1.901
1.887
1.891
1.911
1.921
1.916
1.911
1.921
1.926
1.901
1.887
1.896
1.901
1.891
1.882
1.882
1.891
1.877
1.852
1.857
1.862
1.852
1.828
1.813
1.808
1.794
1.755
1.74
1.745
1.735
1.716
1.701
1.706
1.706
1.672
1.652
1.657
1.662
1.652
1.637
1.637
1.647
1.632
1.613
1.623
1.632
1.628
1.618
1.613
1.632
1.632
1.608
1.608
1.618
1.623
1.608
1.603
1.608
1.623
1.603
1.593
1.613
1.628
1.623
1.618
1.623
1.632
1.623
1.603
1.608
1.618
1.613
1.603
1.603
1.618
1.618
1.598
1.593
1.618
1.628
1.628
1.618
1.632
1.642
1.623
1.613
1.632
1.642
1.632
1.623
1.618
1.632
1.623
1.603
1.613
1.628
1.628
1.623
1.623
1.642
1.647
1.623
1.623
1.642
1.652
1.647
1.647
1.657
1.667
1.642
1.623
1.628
1.637
1.628
1.618
1.623
1.642
1.642
1.632
1.647
1.662
1.657
1.647
1.642
1.647
1.647
1.618
1.618
1.632
1.642
1.642
1.637
1.647
1.662
1.642
1.632
1.652
1.662
1.662
1.657
1.657
1.676
1.662
1.637
1.647
1.662
1.667
1.667
1.672
1.696
1.706
1.686
1.691
1.706
1.706
1.691
1.681
1.681
1.691
1.667
1.652
1.662
1.667
1.662
1.647
1.647
1.657
1.642
1.623
1.623
1.642
1.642
1.637
1.632
1.647
1.647
1.623
1.618
1.637
1.642
1.632
1.623
1.632
1.647
1.632
1.618
1.632
1.642
1.642
1.632
1.637
1.647
1.637
1.618
1.618
1.628
1.623
1.608
1.598
1.603
1.598
1.564
1.559
1.579
1.598
1.623
1.662
1.735
1.823
1.896
1.965
2.053
2.131
2.165
2.165
2.151
2.121
2.053
1.95
1.867
1.794
1.706
1.632
1.569
1.54
1.515
1.471
1.461
1.471
1.481
1.481
1.486
1.51
1.54
1.544
1.554
1.588
1.618
1.628
1.628
1.637
1.657
1.652
1.632
1.637
1.662
1.667
1.662
1.662
1.676
1.681
1.657
1.647
1.667
1.667
1.662
1.652
1.667
1.681
1.667
1.652
1.672
1.681
1.681
1.672
1.676
1.696
1.696
1.676
1.686
1.706
1.701
1.691
1.691
1.706
1.711
1.691
1.686
1.711
1.72
1.711
1.706
1.711
1.725
1.711
1.701
1.716
1.735
1.735
1.735
1.74
1.764
1.764
1.745
1.764
1.794
1.804
1.804
1.813
1.838
1.848
1.828
1.823
1.843
1.852
1.852
1.852
1.862
1.882
1.877
1.872
1.891
1.911
1.906
1.901
1.901
1.921
1.911
1.887
1.891
1.901
1.896
1.877
1.857
1.857
1.852
1.818
1.808
1.818
1.818
1.804
1.784
1.779
1.779
1.745
1.711
1.706
1.701
1.681
1.662
1.657
1.672
1.667
1.637
1.637
1.647
1.642
1.632
1.628
1.642
1.642
1.618
1.613
1.628
1.628
1.613
1.603
1.608
1.623
1.608
1.593
1.603
1.618
1.608
1.593
1.588
1.603
1.598
1.579
1.593
1.618
1.623
1.613
1.608
1.613
1.618
1.588
1.584
1.598
1.608
1.603
1.603
1.613
1.623
1.603
1.588
1.598
1.608
1.603
1.598
1.603
1.623
1.623
1.603
1.608
1.632
1.637
1.628
1.628
1.637
1.642
1.618
1.608
1.623
1.623
1.618
1.608
1.618
1.632
1.618
1.603
1.618
1.632
1.632
1.623
1.623
1.637
1.632
1.608
1.618
1.637
1.642
1.632
1.632
1.647
1.647
1.623
1.618
1.632
1.637
1.632
1.623
1.632
1.647
1.628
1.613
1.623
1.637
1.632
1.623
1.632
1.652
1.657
1.642
1.642
1.657
1.657
1.642
1.632
1.637
1.642
1.623
1.623
1.647
1.662
1.662
1.657
1.667
1.681
1.667
1.652
1.667
1.681
1.681
1.672
1.676
1.691
1.691
1.667
1.667
1.681
1.681
1.672
1.657
1.662
1.662
1.628
1.613
1.623
1.628
1.623
1.613
1.628
1.647
1.637
1.623
1.632
1.642
1.637
1.623
1.623
1.637
1.632
1.608
1.613
1.632
1.632
1.623
1.618
1.628
1.632
1.613
1.603
1.623
1.628
1.623
1.613
1.613
1.623
1.593
1.564
1.564
1.569
1.554
1.549
1.559
1.598
1.642
1.676
1.76
1.862
1.955
2.038
2.107
2.175
2.209
2.19
2.155
2.116
2.053
1.96
1.857
1.769
1.701
1.613
1.54
1.505
1.491
1.471
1.457
1.457
1.476
1.486
1.476
1.496
1.535
1.559
1.569
1.579
1.603
1.628
1.618
1.618
1.637
1.647
1.642
1.637
1.647
1.667
1.652
1.632
1.642
1.657
1.657
1.647
1.647
1.667
1.672
1.652
1.662
1.686
1.691
1.686
1.681
1.691
1.696
1.672
1.657
1.676
1.681
1.681
1.676
1.686
1.701
1.691
1.676
1.686
1.701
1.696
1.691
1.691
1.706
1.711
1.691
1.696
1.72
1.725
1.725
1.72
1.735
1.75
1.735
1.735
1.75
1.769
1.769
1.769
1.779
1.799
1.794
1.779
1.799
1.823
1.833
1.833
1.843
1.867
1.877
1.857
1.862
1.887
1.891
1.887
1.882
1.896
1.911
1.891
1.882
1.896
1.901
1.891
1.877
1.882
1.891
1.877
1.852
1.852
1.857
1.843
1.823
1.804
1.808
1.794
1.76
1.75
1.755
1.75
1.73
1.716
1.711
1.706
1.672
1.652
1.657
1.657
1.647
1.637
1.637
1.652
1.637
1.618
1.628
1.637
1.628
1.613
1.608
1.618
1.613
1.588
1.588
1.608
1.618
1.613
1.608
1.618
1.628
1.603
1.593
1.608
1.618
1.608
1.598
1.603
1.618
1.608
1.588
1.598
1.613
1.608
1.603
1.603
1.628
1.628
1.608
1.613
1.628
1.628
1.618
1.608
1.618
1.628
1.608
1.598
1.618
1.632
1.632
1.623
1.628
1.637
1.623
1.598
1.603
1.618
1.623
1.618
1.623
1.642
1.647
1.628
1.628
1.647
1.652
1.637
1.628
1.637
1.642
1.623
1.613
1.632
1.642
1.637
1.628
1.628
1.642
1.628
1.608
1.613
1.628
1.623
1.618
1.623
1.642
1.647
1.623
1.623
1.637
1.637
1.623
1.613
1.623
1.632
1.618
1.613
1.632
1.647
1.647
1.642
1.642
1.657
1.652
1.632
1.642
1.657
1.657
1.642
1.642
1.652
1.657
1.637
1.637
1.657
1.662
1.657
1.657
1.672
1.686
1.667
1.657
1.676
1.691
1.696
1.696
1.706
1.72
1.706
1.676
1.676
1.686
1.676
1.662
1.652
1.662
1.662
1.637
1.632
1.642
1.642
1.628
1.618
1.623
1.632
1.608
1.598
1.618
1.632
1.628
1.623
1.632
1.652
1.647
1.623
1.632
1.647
1.647
1.637
1.632
1.642
1.642
1.623
1.618
1.632
1.637
1.632
1.623
1.628
1.632
1.598
1.574
1.579
1.579
1.564
1.549
1.549
1.574
1.584
1.598
1.652
1.74
1.823
1.911
2.004
2.107
2.185
2.214
2.234
2.243
2.209
2.136
2.048
1.96
1.877
1.764
1.672
1.613
1.569
1.525
1.491
1.476
1.486
1.476
1.466
1.486
1.515
1.535
1.554
1.574
1.613
1.632
1.623
1.632
1.652
1.657
1.647
1.632
1.637
1.647
1.632
1.623
1.642
1.662
1.662
1.657
1.667
1.686
1.681
1.657
1.662
1.676
1.676
1.667
1.657
1.667
1.672
1.652
1.652
1.676
1.686
1.681
1.676
1.681
1.696
1.676
1.662
1.681
1.691
1.691
1.681
1.686
1.706
1.701
1.686
1.696
1.716
1.72
1.711
1.711
1.725
1.735
1.72
1.72
1.745
1.76
1.764
1.764
1.779
1.799
1.789
1.779
1.794
1.808
1.808
1.808
1.818
1.843
1.848
1.833
1.843
1.867
1.877
1.872
1.877
1.901
1.911
1.896
1.896
1.916
1.916
1.901
1.891
1.891
1.901
1.877
1.857
1.867
1.872
1.862
1.843
1.833
1.833
1.813
1.774
1.764
1.769
1.755
1.735
1.716
1.716
1.711
1.676
1.662
1.672
1.672
1.662
1.647
1.647
1.657
1.632
1.613
1.623
1.637
1.628
1.618
1.618
1.632
1.628
1.603
1.603
1.618
1.613
1.603
1.603
1.618
1.623
1.598
1.593
1.613
1.618
1.608
1.598
1.608
1.623
1.613
1.598
1.613
1.628
1.618
1.608
1.603
1.608
1.603
1.579
1.588
1.613
1.618
1.613
1.613
1.628
1.637
1.613
1.608
1.623
1.628
1.623
1.613
1.623
1.637
1.623
1.603
1.618
1.637
1.632
1.623
1.628
1.647
1.647
1.628
1.637
1.652
1.652
1.637
1.628
1.637
1.637
1.608
1.598
1.613
1.623
1.618
1.613
1.628
1.637
1.623
1.613
1.623
1.642
1.637
1.632
1.632
1.652
1.647
1.628
1.632
1.647
1.647
1.637
1.628
1.637
1.642
1.618
1.613
1.632
1.642
1.637
1.632
1.647
1.662
1.647
1.628
1.637
1.652
1.647
1.637
1.642
1.662
1.657
1.632
1.637
1.652
1.657
1.647
1.637
1.647
1.652
1.628
1.618
1.637
1.642
1.637
1.628
1.637
1.652
1.642
1.632
1.642
1.662
1.662
1.662
1.667
1.691
1.691
1.672
1.681
1.701
1.706
1.701
1.706
1.72
1.725
1.701
1.691
1.701
1.701
1.691
1.672
1.667
1.676
1.662
1.642
1.647
1.657
1.652
1.637
1.637
1.652
1.652
1.632
1.642
1.657
1.657
1.652
1.642
1.652
1.657
1.628
1.618
1.632
1.637
1.632
1.623
1.628
1.637
1.618
1.603
1.613
1.632
1.632
1.628
1.628
1.637
1.632
1.603
1.593
1.598
1.588
1.569
1.554
1.569
1.588
1.598
1.647
1.735
1.838
1.935
2.033
2.136
2.224
2.268
2.268
2.273
2.248
2.19
2.102
2.014
1.931
1.833
1.72
1.642
1.593
1.544
1.5
1.471
1.476
1.486
1.481
1.491
1.53
1.559
1.569
1.579
1.598
1.623
1.618
1.608
1.623
1.637
1.637
1.632
1.632
1.652
1.657
1.637
1.642
1.662
1.667
1.667
1.662
1.676
1.681
1.657
1.652
1.667
1.672
1.667
1.662
1.672
1.691
1.681
1.667
1.676
1.696
1.696
1.691
1.691
1.711
1.706
1.686
1.686
1.706
1.706
1.701
1.686
1.701
1.716
1.696
1.696
1.716
1.73
1.73
1.725
1.735
1.76
1.755
1.74
1.755
1.769
1.769
1.764
1.769
1.784
1.789
1.769
1.774
1.804
1.813
1.813
1.818
1.838
1.862
1.852
1.852
1.877
1.891
1.891
1.887
1.891
1.906
1.896
1.877
1.891
1.911
1.916
1.911
1.906
1.921
1.911
1.877
1.867
1.877
1.867
1.852
1.833
1.833
1.828
1.799
1.779
1.779
1.779
1.76
1.735
1.725
1.725
1.701
1.667
1.667
1.676
1.667
1.657
1.652
1.662
1.657
1.628
1.623
1.632
1.628
1.618
1.608
1.618
1.632
1.613
1.598
1.613
1.623
1.613
1.603
1.613
1.628
1.618
1.598
1.608
1.623
1.623
1.608
1.608
1.623
1.623
1.603
1.608
1.628
1.628
1.623
1.613
1.618
1.628
1.603
1.593
1.608
1.618
1.613
1.608
1.618
1.632
1.628
1.613
1.623
1.642
1.642
1.632
1.628
1.642
1.637
1.613
1.608
1.623
1.623
1.618
1.608
1.618
1.623
1.608
1.598
1.613
1.628
1.623
1.618
1.623
1.637
1.628
1.613
1.623
1.642
1.637
1.632
1.628
1.642
1.647
1.628
1.628
1.642
1.647
1.637
1.628
1.637
1.642
1.623
1.608
1.623
1.637
1.632
1.628
1.632
1.647
1.632
1.608
1.613
1.628
1.628
1.618
1.623
1.642
1.652
1.628
1.628
1.647
1.647
1.637
1.623
1.628
1.637
1.613
1.603
1.623
1.637
1.628
1.618
1.623
1.642
1.632
1.608
1.618
1.637
1.637
1.632
1.632
1.652
1.657
1.632
1.632
1.652
1.657
1.652
1.642
1.652
1.667
1.647
1.632
1.647
1.662
1.657
1.647
1.652
1.672
1.667
1.652
1.667
1.686
1.691
1.691
1.696
1.716
1.716
1.691
1.686
1.706
1.706
1.696
1.681
1.686
1.696
1.676
1.657
1.667
1.672
1.657
1.637
1.632
1.642
1.628
1.608
1.613
1.632
1.642
1.642
1.642
1.657
1.662
1.632
1.623
1.637
1.632
1.623
1.618
1.628
1.642
1.623
1.613
1.632
1.642
1.637
1.632
1.632
1.647
1.637
1.618
1.618
1.623
1.608
1.584
1.564
1.564
1.554
1.53
1.544
1.593
1.652
1.725
1.804
1.916
2.028
2.111
2.18
2.253
2.302
2.302
2.268
2.224
2.17
2.072
1.95
1.848
1.764
1.672
1.584
1.525
1.5
1.481
1.452
1.452
1.476
1.496
1.505
1.52
1.549
1.584
1.584
1.588
1.618
1.642
1.647
1.637
1.637
1.642
1.632
1.613
1.623
1.642
1.657
1.652
1.657
1.667
1.672
1.647
1.642
1.657
1.667
1.657
1.652
1.667
1.676
1.662
1.647
1.657
1.667
1.667
1.662
1.667
1.686
1.686
1.662
1.672
1.691
1.696
1.686
1.686
1.701
1.711
1.686
1.686
1.706
1.716
1.711
1.711
1.72
1.74
1.725
1.716
1.735
1.76
1.76
1.755
1.764
1.784
1.789
1.769
1.779
1.794
1.799
1.789
1.794
1.813
1.833
1.823
1.833
1.862
1.877
1.882
1.882
1.891
1.906
1.891
1.877
1.896
1.911
1.911
1.901
1.906
1.926
1.916
1.891
1.891
1.901
1.896
1.882
1.862
1.867
1.857
1.823
1.808
1.813
1.804
1.784
1.764
1.755
1.755
1.72
1.691
1.691
1.696
1.686
1.672
1.667
1.681
1.667
1.642
1.642
1.647
1.642
1.628
1.623
1.632
1.637
1.613
1.598
1.608
1.608
1.593
1.579
1.588
1.603
1.593
1.584
1.603
1.628
1.628
1.623
1.623
1.628
1.618
1.584
1.584
1.598
1.598
1.593
1.593
1.608
1.623
1.603
1.598
1.613
1.628
1.618
1.613
1.623
1.632
1.618
1.598
1.613
1.628
1.623
1.613
1.613
1.628
1.623
1.603
1.608
1.628
1.628
1.618
1.613
1.628
1.637
1.618
1.613
1.632
1.637
1.632
1.623
1.632
1.647
1.632
1.608
1.618
1.628
1.623
1.618
1.623
1.637
1.637
1.618
1.628
1.642
1.637
1.628
1.618
1.628
1.632
1.613
1.608
1.632
1.642
1.642
1.637
1.642
1.652
1.637
1.618
1.628
1.632
1.628
1.623
1.623
1.637
1.637
1.623
1.628
1.647
1.652
1.642
1.637
1.642
1.647
1.618
1.613
1.628
1.637
1.637
1.632
1.642
1.657
1.642
1.628
1.637
1.647
1.642
1.632
1.632
1.647
1.647
1.623
1.628
1.647
1.647
1.642
1.637
1.652
1.657
1.637
1.623
1.637
1.647
1.642
1.632
1.642
1.662
1.647
1.628
1.637
1.652
1.647
1.642
1.647
1.667
1.672
1.652
1.657
1.676
1.676
1.667
1.657
1.667
1.676
1.657
1.657
1.686
1.706
1.711
1.711
1.716
1.725
1.711
1.691
1.696
1.711
1.706
1.691
1.691
1.706
1.696
1.662
1.662
1.672
1.672
1.662
1.647
1.657
1.662
1.637
1.623
1.637
1.642
1.637
1.632
1.642
1.662
1.652
1.632
1.642
1.657
1.652
1.637
1.632
1.642
1.642
1.618
1.623
1.642
1.642
1.637
1.628
1.642
1.652
1.628
1.618
1.628
1.628
1.608
1.584
1.574
1.574
1.559
1.54
1.564
1.618
1.667
1.73
1.823
1.935
2.033
2.102
2.18
2.258
2.287
2.287
2.258
2.219
2.155
2.048
1.94
1.852
1.76
1.662
1.579
1.525
1.505
1.471
1.442
1.457
1.486
1.5
1.515
1.535
1.569
1.588
1.579
1.598
1.628
1.642
1.642
1.637
1.647
1.657
1.637
1.628
1.647
1.657
1.657
1.652
1.662
1.681
1.676
1.657
1.667
1.681
1.676
1.662
1.657
1.672
1.676
1.652
1.657
1.681
1.686
1.676
1.672
1.686
1.696
1.681
1.672
1.691
1.706
1.701
1.691
1.696
1.706
1.691
1.672
1.681
1.706
1.711
1.716
1.725
1.75
1.75
1.725
1.725
1.74
1.74
1.735
1.735
1.75
1.769
1.76
1.76
1.784
1.804
1.804
1.804
1.813
1.838
1.838
1.833
1.852
1.877
1.877
1.872
1.877
1.896
1.901
1.882
1.887
1.911
1.926
1.926
1.921
1.935
1.945
1.921
1.911
1.916
1.921
1.911
1.891
1.887
1.891
1.867
1.828
1.823
1.828
1.813
1.794
1.779
1.774
1.76
1.725
1.711
1.711
1.706
1.686
1.667
1.672
1.676
1.652
1.637
1.647
1.647
1.637
1.623
1.623
1.632
1.618
1.598
1.608
1.628
1.623
1.613
1.608
1.623
1.628
1.603
1.598
1.613
1.613
1.608
1.603
1.613
1.623
1.603
1.593
1.603
1.613
1.608
1.598
1.603
1.618
1.608
1.588
1.598
1.618
1.618
1.613
1.613
1.623
1.623
1.603
1.593
1.613
1.618
1.618
1.613
1.623
1.632
1.618
1.608
1.628
1.637
1.628
1.618
1.618
1.628
1.618
1.598
1.603
1.623
1.623
1.618
1.623
1.637
1.642
1.618
1.613
1.628
1.632
1.623
1.618
1.628
1.642
1.628
1.618
1.632
1.642
1.632
1.623
1.628
1.647
1.637
1.613
1.623
1.637
1.637
1.628
1.618
1.632
1.632
1.613
1.613
1.628
1.637
1.632
1.623
1.632
1.642
1.628
1.613
1.628
1.637
1.637
1.628
1.628
1.642
1.637
1.618
1.623
1.642
1.642
1.632
1.628
1.642
1.642
1.618
1.618
1.637
1.647
1.637
1.628
1.637
1.652
1.637
1.623
1.637
1.647
1.642
1.628
1.628
1.642
1.632
1.613
1.623
1.642
1.642
1.637
1.637
1.652
1.657
1.632
1.628
1.642
1.647
1.642
1.632
1.642
1.657
1.642
1.632
1.647
1.667
1.667
1.657
1.662
1.681
1.676
1.657
1.667
1.691
1.696
1.691
1.691
1.711
1.716
1.691
1.686
1.706
1.716
1.711
1.706
1.716
1.72
1.696
1.667
1.667
1.662
1.647
1.632
1.632
1.652
1.647
1.632
1.642
1.657
1.657
1.642
1.632
1.637
1.637
1.613
1.608
1.628
1.632
1.632
1.628
1.637
1.647
1.628
1.613
1.628
1.637
1.637
1.628
1.628
1.642
1.637
1.613
1.613
1.618
1.608
1.588
1.569
1.574
1.574
1.549
1.554
1.593
1.642
1.696
1.769
1.872
1.984
2.063
2.131
2.214
2.273
2.287
2.268
2.234
2.185
2.097
1.975
1.877
1.794
1.701
1.613
1.549
1.515
1.491
1.452
1.447
1.466
1.481
1.486
1.496
1.515
1.549
1.554
1.564
1.598
1.628
1.642
1.637
1.647
1.662
1.657
1.632
1.637
1.657
1.657
1.647
1.642
1.657
1.662
1.642
1.637
1.657
1.667
1.667
1.667
1.681
1.696
1.676
1.662
1.672
1.686
1.681
1.676
1.676
1.696
1.691
1.667
1.672
1.691
1.696
1.691
1.691
1.706
1.72
1.701
1.696
1.711
1.72
1.716
1.706
1.716
1.73
1.716
1.706
1.725
1.75
1.755
1.75
1.76
1.779
1.784
1.769
1.779
1.804
1.813
1.813
1.813
1.838
1.857
1.843
1.843
1.867
1.882
1.882
1.877
1.891
1.906
1.901
1.891
1.911
1.931
1.935
1.926
1.931
1.945
1.94
1.911
1.911
1.921
1.921
1.906
1.891
1.896
1.891
1.857
1.838
1.838
1.833
1.813
1.789
1.779
1.779
1.75
1.72
1.711
1.711
1.691
1.672
1.662
1.672
1.667
1.637
1.637
1.652
1.652
1.642
1.632
1.637
1.637
1.613
1.603
1.613
1.623
1.613
1.603
1.608
1.623
1.608
1.588
1.598
1.613
1.608
1.598
1.598
1.613
1.608
1.584
1.584
1.603
1.608
1.603
1.598
1.618
1.628
1.608
1.603
1.623
1.628
1.623
1.613
1.618
1.628
1.613
1.588
1.598
1.613
1.608
1.598
1.603
1.618
1.623
1.598
1.603
1.623
1.628
1.623
1.618
1.632
1.642
1.623
1.613
1.628
1.632
1.623
1.613
1.618
1.632
1.618
1.598
1.613
1.628
1.623
1.618
1.618
1.632
1.632
1.613
1.618
1.637
1.642
1.632
1.632
1.642
1.647
1.623
1.613
1.632
1.642
1.637
1.628
1.632
1.647
1.632
1.613
1.623
1.632
1.632
1.623
1.628
1.642
1.642
1.618
1.623
1.642
1.642
1.628
1.623
1.632
1.642
1.623
1.618
1.632
1.642
1.642
1.632
1.642
1.652
1.632
1.613
1.618
1.632
1.632
1.628
1.628
1.647
1.652
1.628
1.628
1.647
1.652
1.642
1.637
1.647
1.657
1.637
1.632
1.647
1.657
1.652
1.642
1.647
1.662
1.652
1.632
1.647
1.662
1.667
1.662
1.667
1.686
1.696
1.676
1.681
1.706
1.711
1.706
1.696
1.701
1.711
1.686
1.672
1.686
1.691
1.686
1.672
1.672
1.681
1.667
1.642
1.642
1.652
1.647
1.637
1.637
1.652
1.657
1.632
1.632
1.647
1.647
1.637
1.628
1.632
1.642
1.623
1.618
1.632
1.647
1.642
1.642
1.652
1.667
1.652
1.628
1.632
1.642
1.637
1.623
1.618
1.628
1.623
1.593
1.588
1.598
1.588
1.574
1.564
1.569
1.588
1.593
1.623
1.696
1.789
1.877
1.965
2.063
2.16
2.219
2.234
2.248
2.239
2.185
2.102
2.009
1.921
1.818
1.701
1.618
1.569
1.525
1.486
1.461
1.461
1.476
1.461
1.457
1.481
1.51
1.525
1.544
1.574
1.613
1.623
1.618
1.637
1.662
1.662
1.652
1.647
1.657
1.657
1.637
1.642
1.662
1.667
1.657
1.652
1.662
1.676
1.657
1.652
1.672
1.691
1.686
1.676
1.676
1.686
1.676
1.652
1.662
1.681
1.681
1.676
1.681
1.696
1.701
1.672
1.672
1.686
1.696
1.696
1.701
1.72
1.74
1.725
1.716
1.73
1.74
1.735
1.725
1.73
1.75
1.745
1.73
1.74
1.764
1.769
1.764
1.769
1.784
1.794
1.779
1.789
1.813
1.828
1.833
1.838
1.857
1.882
1.872
1.867
1.887
1.906
1.906
1.901
1.911
1.931
1.926
1.911
1.916
1.935
1.935
1.931
1.931
1.945
1.95
1.926
1.911
1.921
1.911
1.891
1.867
1.862
1.857
1.828
1.799
1.799
1.799
1.779
1.755
1.74
1.74
1.72
1.681
1.681
1.691
1.686
1.672
1.662
1.672
1.667
1.637
1.623
1.632
1.628
1.618
1.608
1.613
1.628
1.608
1.598
1.613
1.628
1.623
1.618
1.618
1.628
1.623
1.598
1.608
1.623
1.618
1.608
1.598
1.608
1.613
1.588
1.584
1.603
1.613
1.608
1.603
1.608
1.618
1.598
1.584
1.593
1.608
1.603
1.598
1.603
1.623
1.623
1.598
1.603
1.618
1.618
1.603
1.598
1.608
1.618
1.598
1.598
1.618
1.623
1.618
1.613
1.628
1.642
1.628
1.613
1.628
1.647
1.647
1.642
1.642
1.657
1.642
1.613
1.613
1.632
1.632
1.628
1.628
1.642
1.647
1.628
1.623
1.637
1.642
1.637
1.632
1.642
1.657
1.642
1.632
1.652
1.662
1.657
1.642
1.637
1.647
1.642
1.623
1.632
1.647
1.647
1.637
1.632
1.642
1.642
1.618
1.608
1.628
1.637
1.637
1.637
1.652
1.667
1.652
1.632
1.642
1.647
1.637
1.628
1.628
1.647
1.642
1.623
1.632
1.652
1.657
1.647
1.642
1.657
1.662
1.637
1.632
1.652
1.662
1.657
1.652
1.662
1.676
1.662
1.642
1.652
1.667
1.662
1.657
1.667
1.686
1.691
1.676
1.686
1.706
1.711
1.701
1.696
1.706
1.711
1.686
1.681
1.696
1.696
1.681
1.667
1.667
1.672
1.652
1.628
1.642
1.657
1.652
1.642
1.647
1.662
1.657
1.628
1.623
1.637
1.637
1.628
1.628
1.642
1.657
1.642
1.637
1.652
1.662
1.647
1.637
1.637
1.647
1.628
1.613
1.623
1.642
1.637
1.628
1.628
1.637
1.632
1.603
1.598
1.603
1.588
1.569
1.554
1.569
1.593
1.603
1.652
1.74
1.838
1.926
2.009
2.097
2.175
2.204
2.204
2.199
2.175
2.107
2.019
1.921
1.833
1.73
1.623
1.554
1.525
1.491
1.466
1.452
1.461
1.476
1.461
1.461
1.491
1.515
1.535
1.554
1.588
1.623
1.632
1.632
1.647
1.667
1.662
1.652
1.652
1.662
1.657
1.632
1.642
1.657
1.667
1.662
1.662
1.676
1.686
1.667
1.662
1.681
1.686
1.681
1.672
1.676
1.696
1.686
1.672
1.686
1.701
1.701
1.691
1.691
1.701
1.696
1.676
1.681
1.701
1.711
1.711
1.706
1.72
1.73
1.711
1.696
1.711
1.716
1.711
1.706
1.716
1.74
1.735
1.725
1.75
1.769
1.774
1.774
1.784
1.808
1.808
1.789
1.799
1.818
1.818
1.823
1.823
1.852
1.872
1.862
1.867
1.891
1.911
1.911
1.906
1.916
1.931
1.916
1.901
1.911
1.931
1.926
1.921
1.916
1.926
1.921
1.891
1.891
1.901
1.896
1.877
1.857
1.857
1.848
1.813
1.789
1.789
1.784
1.764
1.745
1.735
1.74
1.716
1.681
1.676
1.681
1.667
1.647
1.642
1.657
1.652
1.623
1.623
1.637
1.637
1.628
1.618
1.623
1.632
1.613
1.603
1.623
1.637
1.632
1.618
1.618
1.623
1.613
1.593
1.598
1.613
1.608
1.598
1.603
1.618
1.618
1.593
1.588
1.603
1.603
1.593
1.588
1.603
1.618
1.598
1.588
1.608
1.613
1.608
1.593
1.593
1.608
1.598
1.584
1.593
1.613
1.618
1.613
1.613
1.628
1.623
1.598
1.598
1.618
1.618
1.618
1.613
1.632
1.647
1.628
1.623
1.637
1.647
1.642
1.632
1.632
1.642
1.632
1.608
1.618
1.632
1.632
1.628
1.632
1.652
1.662
1.637
1.628
1.637
1.637
1.623
1.608
1.618
1.623
1.608
1.603
1.623
1.642
1.642
1.632
1.637
1.647
1.632
1.613
1.618
1.637
1.632
1.623
1.623
1.637
1.637
1.618
1.618
1.637
1.647
1.642
1.637
1.647
1.657
1.632
1.613
1.623
1.632
1.628
1.618
1.623
1.637
1.632
1.618
1.632
1.652
1.652
1.642
1.637
1.647
1.647
1.623
1.623
1.642
1.647
1.642
1.642
1.657
1.672
1.652
1.642
1.662
1.676
1.676
1.667
1.672
1.686
1.681
1.662
1.672
1.686
1.686
1.676
1.676
1.691
1.691
1.667
1.662
1.672
1.672
1.657
1.647
1.647
1.652
1.632
1.613
1.623
1.632
1.628
1.623
1.632
1.647
1.637
1.618
1.623
1.637
1.637
1.628
1.623
1.637
1.637
1.618
1.613
1.632
1.637
1.637
1.628
1.637
1.652
1.632
1.618
1.628
1.632
1.618
1.593
1.584
1.588
1.574
1.549
1.559
1.584
1.613
1.647
1.706
1.794
1.882
1.94
2.014
2.097
2.155
2.17
2.16
2.136
2.097
2.004
1.911
1.838
1.764
1.681
1.608
1.554
1.53
1.496
1.457
1.457
1.471
1.476
1.476
1.486
1.51
1.535
1.535
1.554
1.593
1.618
1.632
1.637
1.657
1.672
1.657
1.642
1.652
1.667
1.662
1.652
1.657
1.672
1.667
1.652
1.667
1.686
1.686
1.681
1.681
1.696
1.696
1.672
1.667
1.681
1.691
1.691
1.686
1.696
1.711
1.696
1.681
1.696
1.706
1.701
1.696
1.701
1.716
1.711
1.691
1.701
1.716
1.72
1.716
1.716
1.735
1.75
1.73
1.73
1.75
1.76
1.755
1.75
1.76
1.774
1.76
1.755
1.774
1.799
1.799
1.799
1.808
1.838
1.843
1.828
1.843
1.867
1.877
1.877
1.877
1.896
1.906
1.887
1.887
1.906
1.916
1.911
1.911
1.926
1.935
1.921
1.901
1.911
1.921
1.911
1.896
1.896
1.911
1.896
1.862
1.857
1.857
1.843
1.813
1.789
1.784
1.774
1.74
1.725
1.73
1.725
1.711
1.696
1.696
1.696
1.672
1.652
1.657
1.662
1.652
1.637
1.632
1.642
1.628
1.603
1.608
1.628
1.632
1.623
1.623
1.632
1.637
1.613
1.603
1.618
1.623
1.613
1.608
1.613
1.628
1.613
1.598
1.613
1.628
1.623
1.613
1.613
1.632
1.632
1.603
1.608
1.623
1.623
1.613
1.608
1.618
1.623
1.603
1.598
1.618
1.628
1.623
1.613
1.623
1.637
1.623
1.613
1.628
1.642
1.642
1.632
1.628
1.642
1.632
1.608
1.608
1.623
1.623
1.618
1.618
1.637
1.647
1.623
1.618
1.637
1.647
1.642
1.637
1.647
1.662
1.642
1.628
1.637
1.652
1.647
1.642
1.647
1.662
1.662
1.637
1.637
1.652
1.647
1.637
1.628
1.637
1.647
1.628
1.623
1.642
1.652
1.647
1.637
1.642
1.657
1.642
1.623
1.637
1.652
1.647
1.642
1.642
1.657
1.652
1.628
1.628
1.642
1.647
1.642
1.637
1.652
1.657
1.637
1.632
1.652
1.657
1.652
1.642
1.657
1.672
1.662
1.647
1.652
1.667
1.657
1.647
1.647
1.662
1.667
1.652
1.667
1.691
1.706
1.701
1.701
1.711
1.716
1.686
1.676
1.691
1.696
1.686
1.676
1.681
1.691
1.672
1.642
1.647
1.652
1.647
1.637
1.642
1.657
1.652
1.632
1.632
1.647
1.647
1.637
1.632
1.647
1.657
1.642
1.632
1.647
1.657
1.652
1.642
1.647
1.657
1.642
1.623
1.632
1.652
1.642
1.628
1.623
1.637
1.632
1.603
1.598
1.608
1.603
1.588
1.574
1.579
1.584
1.564
1.564
1.608
1.662
1.72
1.789
1.882
1.984
2.058
2.111
2.175
2.219
2.214
2.175
2.121
2.058
1.97
1.852
1.764
1.701
1.637
1.574
1.53
1.51
1.5
1.471
1.461
1.476
1.496
1.5
1.505
1.535
1.574
1.588
1.593
1.623
1.657
1.667
1.662
1.662
1.672
1.662
1.637
1.637
1.652
1.657
1.657
1.662
1.676
1.686
1.667
1.657
1.672
1.681
1.672
1.657
1.662
1.676
1.667
1.652
1.667
1.686
1.686
1.681
1.681
1.701
1.706
1.681
1.686
1.706
1.711
1.706
1.701
1.716
1.725
1.701
1.691
1.711
1.72
1.72
1.716
1.725
1.75
1.745
1.725
1.74
1.76
1.764
1.76
1.76
1.779
1.784
1.764
1.764
1.789
1.799
1.799
1.799
1.823
1.848
1.838
1.838
1.862
1.877
1.877
1.872
1.877
1.891
1.887
1.872
1.887
1.906
1.911
1.911
1.911
1.931
1.931
1.901
1.896
1.901
1.896
1.882
1.862
1.862
1.857
1.828
1.804
1.808
1.808
1.789
1.764
1.755
1.76
1.74
1.711
1.706
1.711
1.696
1.676
1.667
1.676
1.672
1.642
1.632
1.642
1.642
1.632
1.618
1.623
1.628
1.603
1.593
1.608
1.618
1.613
1.608
1.608
1.623
1.608
1.588
1.598
1.618
1.613
1.598
1.593
1.613
1.618
1.598
1.598
1.623
1.628
1.623
1.613
1.623
1.628
1.603
1.584
1.598
1.608
1.603
1.593
1.603
1.618
1.613
1.593
1.608
1.623
1.623
1.618
1.613
1.623
1.628
1.598
1.598
1.618
1.623
1.623
1.618
1.632
1.647
1.628
1.608
1.623
1.632
1.628
1.618
1.623
1.642
1.632
1.613
1.623
1.637
1.632
1.623
1.623
1.637
1.642
1.618
1.623
1.642
1.647
1.642
1.637
1.647
1.657
1.632
1.618
1.632
1.647
1.642
1.632
1.632
1.647
1.637
1.618
1.632
1.652
1.647
1.637
1.632
1.647
1.647
1.623
1.613
1.628
1.628
1.623
1.623
1.637
1.657
1.642
1.632
1.642
1.657
1.647
1.637
1.637
1.652
1.647
1.628
1.632
1.652
1.652
1.642
1.642
1.657
1.662
1.642
1.642
1.662
1.667
1.662
1.657
1.672
1.691
1.676
1.672
1.696
1.716
1.716
1.706
1.711
1.725
1.716
1.686
1.691
1.711
1.706
1.691
1.681
1.686
1.676
1.642
1.628
1.637
1.642
1.637
1.632
1.642
1.662
1.647
1.632
1.647
1.657
1.647
1.637
1.637
1.652
1.647
1.623
1.628
1.642
1.642
1.632
1.628
1.642
1.647
1.623
1.623
1.637
1.642
1.637
1.628
1.637
1.647
1.623
1.603
1.603
1.608
1.593
1.574
1.574
1.588
1.588
1.588
1.632
1.711
1.784
1.867
1.95
2.058
2.141
2.185
2.214
2.243
2.239
2.19
2.116
2.043
1.965
1.857
1.75
1.676
1.618
1.554
1.505
1.476
1.476
1.466
1.447
1.461
1.496
1.515
1.53
1.549
1.588
1.613
1.608
1.618
1.647
1.662
1.657
1.647
1.657
1.667
1.647
1.632
1.647
1.662
1.657
1.647
1.652
1.667
1.667
1.647
1.652
1.676
1.681
1.676
1.672
1.686
1.691
1.662
1.657
1.672
1.681
1.676
1.672
1.686
1.706
1.696
1.681
1.691
1.706
1.696
1.686
1.686
1.706
1.701
1.681
1.691
1.711
1.72
1.716
1.716
1.735
1.745
1.73
1.73
1.75
1.76
1.76
1.75
1.76
1.779
1.769
1.76
1.784
1.804
1.813
1.818
1.828
1.848
1.848
1.833
1.838
1.862
1.867
1.867
1.872
1.891
1.906
1.891
1.896
1.921
1.931
1.926
1.916
1.916
1.926
1.906
1.882
1.882
1.887
1.877
1.857
1.852
1.857
1.848
1.813
1.804
1.804
1.784
1.755
1.73
1.725
1.72
1.691
1.681
1.691
1.696
1.686
1.672
1.672
1.676
1.652
1.623
1.623
1.628
1.623
1.613
1.613
1.628
1.623
1.598
1.598
1.618
1.618
1.608
1.603
1.618
1.628
1.603
1.593
1.613
1.623
1.613
1.603
1.608
1.623
1.608
1.588
1.598
1.613
1.613
1.603
1.603
1.618
1.613
1.588
1.593
1.613
1.618
1.613
1.608
1.623
1.632
1.613
1.608
1.623
1.632
1.623
1.613
1.618
1.632
1.623
1.608
1.618
1.632
1.628
1.618
1.618
1.632
1.628
1.603
1.608
1.628
1.628
1.623
1.613
1.628
1.637
1.623
1.618
1.632
1.642
1.642
1.632
1.637
1.652
1.632
1.613
1.618
1.628
1.628
1.618
1.618
1.632
1.628
1.603
1.608
1.628
1.632
1.628
1.623
1.642
1.652
1.637
1.632
1.647
1.652
1.637
1.623
1.623
1.632
1.618
1.598
1.613
1.628
1.628
1.623
1.623
1.637
1.637
1.613
1.608
1.628
1.637
1.637
1.632
1.647
1.662
1.637
1.628
1.632
1.637
1.628
1.613
1.618
1.637
1.628
1.618
1.628
1.647
1.647
1.637
1.637
1.652
1.657
1.637
1.642
1.667
1.672
1.672
1.667
1.676
1.686
1.667
1.662
1.676
1.691
1.686
1.681
1.691
1.706
1.696
1.672
1.681
1.691
1.681
1.667
1.657
1.662
1.662
1.628
1.628
1.642
1.647
1.637
1.632
1.642
1.652
1.628
1.618
1.628
1.637
1.632
1.623
1.628
1.642
1.628
1.608
1.618
1.637
1.637
1.628
1.628
1.642
1.642
1.613
1.613
1.623
1.623
1.618
1.608
1.613
1.613
1.588
1.569
1.584
1.588
1.574
1.559
1.564
1.588
1.603
1.623
1.696
1.789
1.882
1.975
2.067
2.175
2.243
2.263
2.273
2.268
2.229
2.151
2.058
1.97
1.882
1.764
1.662
1.598
1.554
1.505
1.466
1.452
1.461
1.461
1.452
1.481
1.525
1.554
1.569
1.588
1.623
1.637
1.623
1.623
1.642
1.642
1.632
1.623
1.632
1.652
1.637
1.632
1.647
1.657
1.657
1.647
1.652
1.667
1.662
1.642
1.647
1.672
1.672
1.667
1.667
1.686
1.691
1.667
1.662
1.681
1.691
1.681
1.672
1.681
1.691
1.672
1.662
1.681
1.696
1.696
1.696
1.701
1.725
1.72
1.701
1.711
1.725
1.72
1.711
1.706
1.72
1.73
1.716
1.725
1.75
1.764
1.76
1.76
1.774
1.789
1.774
1.76
1.779
1.799
1.804
1.804
1.818
1.843
1.848
1.838
1.852
1.877
1.882
1.877
1.877
1.901
1.906
1.891
1.896
1.916
1.926
1.921
1.906
1.911
1.916
1.887
1.867
1.877
1.887
1.882
1.867
1.857
1.862
1.838
1.799
1.784
1.784
1.769
1.745
1.73
1.725
1.716
1.676
1.662
1.667
1.667
1.652
1.642
1.642
1.647
1.628
1.608
1.618
1.623
1.613
1.603
1.608
1.623
1.613
1.588
1.593
1.608
1.608
1.598
1.588
1.598
1.608
1.588
1.588
1.613
1.623
1.618
1.613
1.623
1.632
1.613
1.593
1.603
1.613
1.608
1.608
1.613
1.632
1.632
1.613
1.618
1.632
1.628
1.608
1.598
1.603
1.603
1.579
1.574
1.593
1.603
1.603
1.598
1.613
1.628
1.618
1.598
1.608
1.618
1.613
1.598
1.598
1.613
1.608
1.588
1.593
1.613
1.623
1.618
1.613
1.628
1.632
1.608
1.603
1.623
1.628
1.623
1.613
1.623
1.637
1.628
1.613
1.623
1.632
1.628
1.623
1.628
1.647
1.642
1.628
1.632
1.642
1.637
1.623
1.613
1.623
1.623
1.598
1.598
1.623
1.637
1.637
1.628
1.632
1.642
1.623
1.598
1.608
1.618
1.618
1.608
1.613
1.632
1.628
1.608
1.618
1.637
1.637
1.632
1.628
1.637
1.642
1.623
1.613
1.632
1.642
1.637
1.628
1.632
1.647
1.632
1.618
1.632
1.642
1.647
1.642
1.642
1.667
1.667
1.647
1.652
1.672
1.672
1.667
1.667
1.686
1.696
1.676
1.676
1.701
1.72
1.716
1.706
1.711
1.72
1.696
1.667
1.667
1.672
1.657
1.642
1.642
1.652
1.642
1.613
1.613
1.628
1.628
1.623
1.618
1.632
1.642
1.628
1.628
1.642
1.647
1.637
1.628
1.632
1.642
1.628
1.608
1.623
1.632
1.632
1.623
1.623
1.637
1.632
1.603
1.603
1.623
1.628
1.618
1.613
1.618
1.613
1.574
1.554
1.559
1.554
1.549
1.549
1.593
1.657
1.72
1.799
1.911
2.028
2.126
2.199
2.263
2.307
2.307
2.263
2.219
2.16
2.067
1.955
1.843
1.755
1.672
1.574
1.51
1.481
1.466
1.447
1.442
1.457
1.491
1.496
1.496
1.53
1.569
1.588
1.608
1.623
1.652
1.652
1.628
1.628
1.642
1.642
1.632
1.628
1.642
1.652
1.637
1.628
1.642
1.657
1.652
1.642
1.652
1.672
1.657
1.642
1.652
1.672
1.667
1.657
1.657
1.672
1.672
1.657
1.662
1.681
1.686
1.676
1.672
1.681
1.686
1.667
1.662
1.681
1.701
1.701
1.696
1.706
1.72
1.711
1.696
1.711
1.725
1.72
1.716
1.72
1.74
1.75
1.73
1.735
1.755
1.764
1.769
1.769
1.794
1.813
1.804
1.804
1.828
1.848
1.848
1.848
1.857
1.877
1.867
1.857
1.872
1.896
1.896
1.891
1.896
1.911
1.916
1.891
1.891
1.911
1.916
1.911
1.901
1.911
1.916
1.891
1.872
1.872
1.862
1.843
1.818
1.813
1.813
1.789
1.755
1.75
1.755
1.735
1.711
1.701
1.706
1.691
1.657
1.652
1.662
1.657
1.642
1.628
1.632
1.637
1.613
1.598
1.613
1.623
1.618
1.608
1.608
1.623
1.608
1.584
1.593
1.608
1.603
1.598
1.598
1.613
1.613
1.593
1.588
1.608
1.608
1.598
1.588
1.603
1.613
1.598
1.588
1.608
1.623
1.613
1.603
1.608
1.623
1.613
1.593
1.603
1.618
1.618
1.613
1.608
1.623
1.628
1.603
1.598
1.618
1.623
1.623
1.618
1.632
1.642
1.618
1.603
1.618
1.628
1.628
1.623
1.628
1.637
1.628
1.603
1.608
1.628
1.618
1.608
1.603
1.623
1.623
1.603
1.603
1.623
1.628
1.623
1.618
1.628
1.642
1.623
1.613
1.628
1.637
1.628
1.613
1.623
1.637
1.632
1.613
1.623
1.637
1.637
1.632
1.628
1.637
1.642
1.618
1.618
1.637
1.647
1.642
1.632
1.642
1.647
1.628
1.608
1.618
1.628
1.623
1.618
1.628
1.652
1.647
1.628
1.632
1.647
1.642
1.632
1.628
1.637
1.642
1.618
1.618
1.632
1.637
1.632
1.628
1.637
1.647
1.632
1.618
1.632
1.647
1.642
1.632
1.637
1.652
1.642
1.628
1.637
1.662
1.672
1.667
1.667
1.681
1.691
1.667
1.672
1.691
1.701
1.696
1.691
1.711
1.725
1.706
1.691
1.701
1.711
1.701
1.686
1.686
1.691
1.681
1.657
1.662
1.676
1.672
1.662
1.652
1.657
1.652
1.623
1.613
1.623
1.628
1.623
1.618
1.632
1.647
1.637
1.628
1.642
1.652
1.647
1.632
1.632
1.647
1.637
1.618
1.618
1.632
1.637
1.628
1.628
1.642
1.647
1.623
1.613
1.623
1.618
1.603
1.584
1.579
1.584
1.559
1.544
1.569
1.608
1.652
1.711
1.799
1.911
2.004
2.082
2.185
2.273
2.317
2.322
2.297
2.268
2.204
2.092
1.984
1.896
1.794
1.696
1.608
1.554
1.52
1.471
1.442
1.452
1.471
1.486
1.496
1.515
1.559
1.574
1.574
1.603
1.632
1.642
1.637
1.632
1.642
1.647
1.623
1.613
1.632
1.642
1.647
1.647
1.662
1.681
1.667
1.652
1.662
1.672
1.667
1.657
1.662
1.676
1.672
1.657
1.667
1.691
1.696
1.691
1.681
1.696
1.701
1.676
1.672
1.691
1.696
1.691
1.681
1.696
1.716
1.701
1.691
1.711
1.725
1.725
1.72
1.725
1.735
1.73
1.711
1.716
1.74
1.745
1.745
1.745
1.769
1.784
1.769
1.769
1.799
1.813
1.813
1.813
1.828
1.848
1.838
1.823
1.843
1.862
1.867
1.862
1.872
1.896
1.906
1.891
1.901
1.926
1.931
1.926
1.921
1.935
1.94
1.916
1.906
1.916
1.926
1.916
1.906
1.906
1.911
1.882
1.852
1.852
1.848
1.828
1.804
1.789
1.789
1.769
1.73
1.72
1.72
1.711
1.691
1.676
1.681
1.676
1.647
1.637
1.647
1.652
1.642
1.628
1.628
1.632
1.613
1.588
1.603
1.608
1.603
1.593
1.593
1.613
1.613
1.593
1.598
1.618
1.618
1.608
1.603
1.618
1.628
1.603
1.593
1.603
1.613
1.608
1.598
1.608
1.623
1.613
1.598
1.613
1.623
1.618
1.603
1.603
1.618
1.613
1.588
1.593
1.613
1.618
1.608
1.603
1.613
1.613
1.588
1.584
1.598
1.608
1.603
1.603
1.608
1.628
1.613
1.598
1.613
1.623
1.623
1.613
1.613
1.632
1.632
1.608
1.613
1.632
1.637
1.632
1.628
1.637
1.647
1.623
1.613
1.628
1.637
1.628
1.618
1.623
1.632
1.623
1.608
1.623
1.642
1.642
1.637
1.637
1.652
1.642
1.618
1.618
1.632
1.632
1.623
1.613
1.623
1.632
1.618
1.608
1.628
1.637
1.632
1.628
1.632
1.647
1.632
1.613
1.623
1.637
1.637
1.628
1.632
1.652
1.652
1.628
1.632
1.642
1.647
1.637
1.637
1.652
1.662
1.642
1.632
1.647
1.657
1.652
1.642
1.642
1.657
1.647
1.632
1.642
1.657
1.652
1.637
1.637
1.647
1.642
1.628
1.632
1.657
1.662
1.662
1.657
1.672
1.681
1.667
1.662
1.686
1.706
1.706
1.701
1.706
1.72
1.706
1.681
1.686
1.701
1.696
1.686
1.686
1.701
1.696
1.667
1.662
1.672
1.667
1.652
1.642
1.652
1.667
1.642
1.632
1.647
1.657
1.647
1.637
1.642
1.657
1.647
1.628
1.637
1.647
1.642
1.632
1.628
1.642
1.637
1.613
1.613
1.628
1.628
1.623
1.618
1.632
1.647
1.628
1.618
1.632
1.637
1.623
1.598
1.584
1.579
1.554
1.525
1.544
1.579
1.623
1.686
1.769
1.887
1.994
2.072
2.17
2.253
2.302
2.312
2.287
2.258
2.199
2.092
1.975
1.882
1.784
1.686
1.598
1.54
1.505
1.466
1.437
1.447
1.471
1.486
1.496
1.515
1.549
1.569
1.559
1.579
1.608
1.623
1.628
1.628
1.647
1.662
1.642
1.632
1.652
1.662
1.657
1.647
1.652
1.662
1.657
1.637
1.647
1.662
1.662
1.657
1.662
1.681
1.686
1.662
1.662
1.681
1.681
1.672
1.667
1.676
1.686
1.667
1.657
1.672
1.691
1.691
1.686
1.691
1.706
1.696
1.681
1.691
1.716
1.716
1.711
1.711
1.735
1.74
1.72
1.72
1.74
1.745
1.74
1.735
1.75
1.769
1.755
1.75
1.774
1.794
1.799
1.799
1.813
1.843
1.838
1.823
1.838
1.857
1.867
1.867
1.867
1.887
1.891
1.882
1.887
1.916
1.926
1.921
1.916
1.931
1.94
1.921
1.911
1.921
1.926
1.911
1.896
1.887
1.887
1.867
1.838
1.833
1.838
1.828
1.804
1.789
1.789
1.774
1.73
1.711
1.716
1.706
1.686
1.676
1.681
1.686
1.657
1.637
1.642
1.652
1.642
1.628
1.628
1.637
1.618
1.588
1.593
1.608
1.608
1.593
1.593
1.608
1.613
1.588
1.588
1.603
1.608
1.598
1.593
1.603
1.618
1.608
1.598
1.613
1.623
1.613
1.598
1.593
1.613
1.603
1.579
1.588
1.608
1.608
1.598
1.598
1.613
1.613
1.584
1.584
1.608
1.618
1.613
1.598
1.613
1.623
1.603
1.588
1.603
1.613
1.613
1.603
1.613
1.628
1.618
1.593
1.598
1.613
1.613
1.603
1.603
1.618
1.623
1.603
1.603
1.623
1.628
1.623
1.613
1.623
1.637
1.618
1.603
1.618
1.632
1.628
1.618
1.623
1.637
1.632
1.613
1.623
1.642
1.642
1.637
1.632
1.642
1.642
1.618
1.613
1.632
1.637
1.632
1.628
1.637
1.647
1.632
1.618
1.623
1.632
1.628
1.618
1.618
1.632
1.628
1.603
1.608
1.623
1.618
1.608
1.613
1.628
1.637
1.618
1.618
1.637
1.647
1.637
1.628
1.637
1.652
1.632
1.618
1.632
1.647
1.647
1.642
1.642
1.662
1.652
1.632
1.642
1.662
1.657
1.647
1.647
1.662
1.667
1.647
1.647
1.672
1.691
1.691
1.686
1.701
1.716
1.696
1.681
1.696
1.701
1.696
1.681
1.681
1.691
1.681
1.652
1.657
1.667
1.662
1.652
1.642
1.652
1.652
1.628
1.628
1.647
1.657
1.647
1.637
1.642
1.652
1.632
1.613
1.623
1.637
1.632
1.628
1.637
1.652
1.652
1.628
1.628
1.642
1.637
1.623
1.618
1.632
1.637
1.618
1.613
1.628
1.628
1.613
1.593
1.588
1.584
1.554
1.53
1.544
1.574
1.608
1.657
1.74
1.848
1.945
2.019
2.116
2.209
2.258
2.263
2.243
2.214
2.155
2.048
1.945
1.862
1.769
1.681
1.598
1.549
1.52
1.476
1.442
1.447
1.461
1.466
1.476
1.496
1.54
1.559
1.559
1.584
1.618
1.632
1.628
1.628
1.642
1.647
1.623
1.623
1.647
1.662
1.667
1.662
1.672
1.681
1.672
1.652
1.657
1.672
1.667
1.652
1.657
1.676
1.681
1.667
1.672
1.691
1.691
1.681
1.676
1.691
1.696
1.676
1.676
1.696
1.706
1.701
1.696
1.706
1.72
1.706
1.686
1.701
1.716
1.72
1.716
1.725
1.745
1.745
1.72
1.725
1.745
1.755
1.75
1.745
1.764
1.779
1.76
1.764
1.784
1.799
1.794
1.794
1.808
1.828
1.823
1.818
1.838
1.862
1.867
1.862
1.867
1.896
1.896
1.882
1.891
1.916
1.931
1.931
1.931
1.94
1.95
1.926
1.911
1.926
1.931
1.921
1.906
1.901
1.911
1.891
1.867
1.867
1.862
1.843
1.818
1.799
1.794
1.769
1.73
1.716
1.72
1.711
1.696
1.686
1.691
1.686
1.657
1.642
1.652
1.657
1.647
1.632
1.637
1.647
1.628
1.608
1.613
1.623
1.618
1.603
1.603
1.613
1.608
1.584
1.593
1.613
1.618
1.613
1.608
1.623
1.637
1.613
1.603
1.613
1.623
1.608
1.593
1.598
1.608
1.598
1.579
1.593
1.613
1.613
1.608
1.608
1.623
1.623
1.598
1.598
1.618
1.623
1.618
1.613
1.632
1.647
1.632
1.628
1.642
1.642
1.632
1.613
1.613
1.623
1.608
1.588
1.603
1.623
1.628
1.623
1.632
1.647
1.652
1.628
1.637
1.652
1.652
1.642
1.642
1.647
1.657
1.632
1.618
1.632
1.637
1.632
1.618
1.628
1.637
1.628
1.613
1.623
1.637
1.642
1.637
1.637
1.652
1.647
1.623
1.623
1.642
1.652
1.652
1.652
1.667
1.676
1.647
1.637
1.647
1.652
1.642
1.628
1.637
1.652
1.647
1.632
1.647
1.667
1.667
1.657
1.657
1.676
1.672
1.647
1.642
1.652
1.647
1.637
1.628
1.642
1.657
1.642
1.642
1.667
1.681
1.686
1.681
1.691
1.706
1.691
1.672
1.681
1.696
1.696
1.686
1.681
1.701
1.701
1.681
1.686
1.706
1.706
1.691
1.676
1.676
1.676
1.652
1.637
1.647
1.657
1.652
1.647
1.652
1.667
1.657
1.632
1.642
1.657
1.652
1.642
1.637
1.647
1.647
1.628
1.628
1.642
1.647
1.637
1.632
1.642
1.657
1.637
1.628
1.642
1.652
1.642
1.628
1.628
1.637
1.618
1.588
1.593
1.598
1.584
1.574
1.574
1.608
1.642
1.672
1.735
1.838
1.931
2.014
2.087
2.165
2.214
2.204
2.175
2.141
2.082
1.994
1.891
1.804
1.73
1.647
1.564
1.53
1.515
1.496
1.481
1.476
1.491
1.496
1.481
1.491
1.525
1.549
1.569
1.584
1.613
1.637
1.632
1.628
1.647
1.657
1.652
1.647
1.652
1.672
1.667
1.647
1.662
1.676
1.676
1.672
1.672
1.691
1.696
1.672
1.672
1.686
1.686
1.676
1.672
1.681
1.696
1.676
1.667
1.686
1.701
1.696
1.691
1.696
1.711
1.701
1.676
1.691
1.711
1.716
1.711
1.711
1.73
1.735
1.716
1.716
1.735
1.74
1.74
1.735
1.755
1.774
1.764
1.76
1.779
1.794
1.789
1.779
1.784
1.804
1.799
1.789
1.804
1.833
1.838
1.838
1.843
1.862
1.872
1.857
1.862
1.891
1.906
1.911
1.911
1.926
1.94
1.921
1.911
1.921
1.931
1.921
1.906
1.906
1.921
1.906
1.882
1.882
1.882
1.877
1.857
1.843
1.848
1.838
1.799
1.779
1.784
1.774
1.75
1.73
1.73
1.73
1.701
1.681
1.686
1.691
1.681
1.662
1.657
1.662
1.647
1.618
1.623
1.632
1.632
1.618
1.613
1.623
1.628
1.608
1.603
1.618
1.628
1.618
1.613
1.618
1.628
1.603
1.588
1.603
1.618
1.613
1.603
1.613
1.628
1.618
1.593
1.598
1.618
1.618
1.608
1.603
1.618
1.618
1.598
1.593
1.613
1.618
1.613
1.608
1.618
1.637
1.623
1.608
1.618
1.623
1.618
1.613
1.618
1.637
1.632
1.613
1.618
1.632
1.632
1.623
1.613
1.628
1.632
1.613
1.618
1.637
1.652
1.647
1.637
1.647
1.657
1.632
1.618
1.628
1.637
1.637
1.632
1.642
1.657
1.652
1.628
1.628
1.642
1.637
1.628
1.623
1.642
1.647
1.632
1.632
1.652
1.657
1.647
1.632
1.637
1.652
1.637
1.623
1.637
1.657
1.657
1.647
1.652
1.662
1.657
1.632
1.637
1.652
1.647
1.642
1.632
1.647
1.652
1.632
1.632
1.652
1.662
1.657
1.652
1.667
1.681
1.667
1.657
1.676
1.696
1.701
1.691
1.696
1.711
1.701
1.676
1.681
1.696
1.696
1.686
1.676
1.686
1.681
1.652
1.642
1.657
1.657
1.647
1.637
1.642
1.652
1.632
1.613
1.628
1.637
1.632
1.623
1.628
1.647
1.647
1.628
1.632
1.647
1.647
1.637
1.628
1.642
1.647
1.623
1.618
1.632
1.642
1.637
1.632
1.637
1.647
1.628
1.603
1.603
1.608
1.593
1.574
1.564
1.569
1.559
1.544
1.569
1.623
1.676
1.74
1.818
1.916
2.014
2.072
2.131
2.19
2.209
2.19
2.136
2.072
2.004
1.896
1.789
1.711
1.652
1.588
1.53
1.5
1.5
1.486
1.461
1.466
1.491
1.496
1.5
1.51
1.544
1.574
1.574
1.588
1.623
1.642
1.647
1.647
1.657
1.667
1.647
1.628
1.642
1.657
1.657
1.652
1.657
1.672
1.672
1.652
1.662
1.681
1.681
1.672
1.667
1.681
1.686
1.667
1.662
1.676
1.686
1.681
1.676
1.681
1.701
1.686
1.672
1.681
1.701
1.696
1.691
1.696
1.711
1.716
1.701
1.706
1.725
1.725
1.716
1.716
1.73
1.74
1.72
1.716
1.735
1.75
1.75
1.745
1.76
1.779
1.769
1.755
1.774
1.799
1.804
1.804
1.813
1.843
1.843
1.823
1.833
1.857
1.867
1.867
1.867
1.891
1.906
1.896
1.896
1.921
1.931
1.931
1.921
1.926
1.931
1.911
1.887
1.891
1.896
1.891
1.877
1.867
1.877
1.857
1.823
1.813
1.813
1.799
1.774
1.755
1.755
1.755
1.725
1.711
1.716
1.716
1.696
1.676
1.672
1.681
1.657
1.632
1.637
1.642
1.632
1.623
1.618
1.628
1.623
1.603
1.603
1.623
1.623
1.618
1.613
1.623
1.628
1.608
1.593
1.613
1.623
1.618
1.613
1.623
1.637
1.618
1.603
1.613
1.628
1.623
1.613
1.613
1.628
1.623
1.598
1.598
1.613
1.613
1.608
1.598
1.613
1.623
1.603
1.593
1.613
1.623
1.618
1.618
1.628
1.647
1.637
1.623
1.632
1.647
1.637
1.623
1.618
1.628
1.623
1.598
1.603
1.623
1.628
1.618
1.618
1.632
1.642
1.623
1.618
1.637
1.647
1.642
1.632
1.642
1.657
1.647
1.628
1.642
1.652
1.647
1.632
1.632
1.642
1.642
1.623
1.628
1.652
1.657
1.652
1.647
1.657
1.657
1.632
1.623
1.642
1.652
1.652
1.647
1.652
1.667
1.652
1.628
1.637
1.642
1.637
1.628
1.628
1.642
1.642
1.623
1.628
1.647
1.647
1.642
1.637
1.652
1.662
1.642
1.642
1.662
1.676
1.676
1.676
1.691
1.711
1.701
1.681
1.691
1.701
1.696
1.676
1.672
1.681
1.676
1.647
1.642
1.662
1.667
1.657
1.647
1.657
1.662
1.642
1.628
1.637
1.642
1.637
1.628
1.632
1.647
1.632
1.618
1.632
1.652
1.652
1.642
1.632
1.647
1.642
1.613
1.608
1.623
1.628
1.618
1.618
1.628
1.637
1.623
1.613
1.623
1.628
1.613
1.593
1.588
1.593
1.574
1.544
1.554
1.584
1.613
1.657
1.73
1.833
1.926
1.994
2.077
2.165
2.214
2.224
2.199
2.17
2.116
2.019
1.921
1.843
1.764
1.681
1.608
1.559
1.535
1.5
1.466
1.466
1.486
1.486
1.486
1.496
1.525
1.544
1.549
1.574
1.613
1.637
1.637
1.642
1.652
1.667
1.647
1.632
1.652
1.662
1.662
1.657
1.667
1.681
1.672
1.652
1.662
1.676
1.681
1.676
1.672
1.686
1.686
1.662
1.657
1.676
1.681
1.676
1.672
1.686
1.696
1.676
1.667
1.681
1.691
1.691
1.686
1.696
1.716
1.716
1.696
1.706
1.72
1.72
1.711
1.711
1.73
1.735
1.716
1.72
1.74
1.745
1.74
1.74
1.75
1.769
1.75
1.745
1.764
1.789
1.794
1.794
1.804
1.828
1.823
1.813
1.828
1.848
1.852
1.852
1.857
1.882
1.891
1.877
1.887
1.911
1.921
1.916
1.906
1.916
1.926
1.901
1.887
1.896
1.906
1.896
1.877
1.872
1.877
1.862
1.833
1.833
1.838
1.823
1.799
1.784
1.779
1.76
1.72
1.701
1.706
1.696
1.681
1.667
1.672
1.681
1.657
1.637
1.647
1.652
1.647
1.632
1.632
1.642
1.628
1.598
1.603
1.618
1.613
1.603
1.608
1.618
1.623
1.603
1.603
1.618
1.623
1.608
1.598
1.608
1.618
1.603
1.593
1.603
1.618
1.618
1.603
1.608
1.623
1.613
1.588
1.593
1.613
1.613
1.608
1.608
1.628
1.632
1.608
1.603
1.618
1.623
1.613
1.603
1.613
1.628
1.608
1.598
1.613
1.623
1.618
1.608
1.613
1.632
1.623
1.603
1.613
1.632
1.632
1.623
1.618
1.632
1.632
1.608
1.608
1.623
1.632
1.628
1.618
1.632
1.652
1.637
1.628
1.642
1.652
1.647
1.632
1.637
1.652
1.642
1.618
1.623
1.637
1.637
1.628
1.623
1.637
1.642
1.618
1.618
1.637
1.647
1.637
1.628
1.637
1.647
1.628
1.613
1.623
1.632
1.632
1.628
1.632
1.652
1.647
1.623
1.632
1.642
1.642
1.628
1.623
1.632
1.642
1.623
1.623
1.647
1.652
1.652
1.647
1.657
1.676
1.662
1.642
1.652
1.657
1.652
1.642
1.647
1.667
1.667
1.657
1.676
1.701
1.711
1.706
1.706
1.716
1.711
1.681
1.672
1.686
1.686
1.676
1.662
1.667
1.676
1.657
1.632
1.637
1.642
1.637
1.628
1.628
1.637
1.632
1.613
1.628
1.647
1.652
1.642
1.637
1.647
1.652
1.623
1.613
1.632
1.637
1.628
1.628
1.637
1.647
1.632
1.618
1.632
1.642
1.642
1.628
1.623
1.632
1.613
1.579
1.574
1.579
1.569
1.554
1.544
1.564
1.588
1.598
1.647
1.735
1.823
1.911
1.999
2.102
2.195
2.234
2.248
2.253
2.234
2.17
2.087
1.994
1.911
1.808
1.701
1.628
1.584
1.544
1.505
1.481
1.481
1.481
1.466
1.466
1.5
1.53
1.544
1.559
1.593
1.628
1.628
1.623
1.637
1.652
1.652
1.642
1.642
1.662
1.667
1.647
1.652
1.667
1.667
1.657
1.647
1.657
1.662
1.642
1.647
1.667
1.676
1.672
1.662
1.667
1.681
1.662
1.647
1.662
1.676
1.672
1.672
1.676
1.696
1.696
1.676
1.681
1.701
1.706
1.701
1.696
1.711
1.72
1.696
1.691
1.711
1.72
1.716
1.706
1.72
1.74
1.73
1.72
1.735
1.755
1.76
1.755
1.764
1.784
1.784
1.769
1.784
1.808
1.818
1.818
1.823
1.843
1.852
1.838
1.833
1.857
1.872
1.872
1.867
1.882
1.901
1.891
1.877
1.891
1.906
1.906
1.906
1.906
1.926
1.916
1.887
1.882
1.891
1.877
1.857
1.838
1.838
1.838
1.808
1.794
1.799
1.794
1.769
1.745
1.735
1.73
1.701
1.672
1.672
1.676
1.672
1.657
1.657
1.667
1.657
1.628
1.623
1.637
1.632
1.623
1.613
1.623
1.628
1.608
1.598
1.613
1.618
1.608
1.598
1.603
1.618
1.608
1.588
1.603
1.623
1.623
1.613
1.618
1.632
1.632
1.603
1.603
1.618
1.623
1.613
1.603
1.613
1.623
1.603
1.598
1.618
1.628
1.623
1.608
1.618
1.632
1.618
1.598
1.613
1.628
1.628
1.618
1.613
1.632
1.628
1.608
1.608
1.623
1.628
1.623
1.618
1.632
1.642
1.618
1.613
1.628
1.637
1.632
1.628
1.628
1.642
1.632
1.618
1.628
1.642
1.637
1.628
1.628
1.642
1.642
1.628
1.628
1.647
1.652
1.642
1.632
1.647
1.652
1.628
1.618
1.628
1.637
1.632
1.623
1.632
1.642
1.632
1.613
1.623
1.637
1.632
1.628
1.628
1.642
1.642
1.623
1.623
1.642
1.647
1.642
1.637
1.647
1.657
1.632
1.623
1.637
1.642
1.637
1.628
1.637
1.652
1.642
1.628
1.637
1.657
1.652
1.642
1.642
1.662
1.657
1.637
1.637
1.657
1.662
1.657
1.647
1.662
1.676
1.657
1.652
1.667
1.672
1.672
1.662
1.676
1.691
1.686
1.667
1.686
1.706
1.711
1.701
1.701
1.716
1.711
1.686
1.681
1.696
1.691
1.676
1.662
1.672
1.672
1.647
1.632
1.647
1.652
1.647
1.637
1.647
1.662
1.652
1.632
1.642
1.652
1.647
1.637
1.637
1.652
1.652
1.632
1.637
1.657
1.662
1.647
1.637
1.642
1.652
1.623
1.613
1.623
1.632
1.628
1.623
1.628
1.637
1.613
1.584
1.579
1.584
1.569
1.554
1.559
1.588
1.628
1.662
1.735
1.848
1.945
2.038
2.121
2.209
2.273
2.278
2.263
2.243
2.195
2.116
2.014
1.916
1.823
1.716
1.613
1.554
1.52
1.486
1.457
1.452
1.471
1.486
1.481
1.505
1.544
1.574
1.588
1.603
1.637
1.662
1.657
1.647
1.657
1.662
1.657
1.642
1.642
1.657
1.647
1.632
1.642
1.657
1.657
1.647
1.647
1.662
1.672
1.652
1.657
1.681
1.686
1.681
1.676
1.686
1.701
1.681
1.667
1.681
1.691
1.681
1.672
1.676
1.691
1.681
1.662
1.676
1.701
1.706
1.701
1.701
1.725
1.735
1.716
1.716
1.735
1.74
1.735
1.73
1.74
1.75
1.73
1.72
1.74
1.76
1.76
1.755
1.769
1.789
1.789
1.784
1.804
1.828
1.838
1.833
1.843
1.867
1.877
1.857
1.857
1.882
1.887
1.887
1.887
1.896
1.916
1.901
1.891
1.911
1.926
1.921
1.906
1.901
1.911
1.891
1.862
1.862
1.877
1.872
1.857
1.848
1.852
1.838
1.799
1.774
1.774
1.76
1.735
1.716
1.72
1.72
1.696
1.676
1.681
1.686
1.667
1.647
1.642
1.652
1.637
1.618
1.623
1.637
1.637
1.628
1.623
1.628
1.628
1.603
1.598
1.613
1.618
1.608
1.603
1.613
1.623
1.608
1.593
1.608
1.623
1.618
1.608
1.613
1.623
1.613
1.588
1.598
1.613
1.613
1.603
1.603
1.623
1.628
1.608
1.603
1.623
1.623
1.618
1.608
1.618
1.632
1.613
1.603
1.613
1.628
1.623
1.618
1.623
1.642
1.637
1.618
1.623
1.637
1.632
1.623
1.613
1.628
1.628
1.603
1.598
1.618
1.623
1.618
1.613
1.628
1.637
1.628
1.618
1.632
1.647
1.647
1.637
1.642
1.652
1.637
1.613
1.618
1.632
1.632
1.623
1.623
1.642
1.647
1.623
1.623
1.637
1.642
1.632
1.632
1.637
1.652
1.632
1.623
1.632
1.647
1.642
1.632
1.637
1.652
1.647
1.628
1.632
1.652
1.652
1.637
1.628
1.642
1.642
1.623
1.613
1.628
1.632
1.628
1.623
1.632
1.647
1.642
1.632
1.647
1.662
1.662
1.652
1.652
1.672
1.667
1.647
1.662
1.676
1.681
1.676
1.667
1.681
1.686
1.662
1.662
1.681
1.696
1.691
1.691
1.701
1.716
1.706
1.691
1.701
1.711
1.706
1.691
1.691
1.701
1.691
1.662
1.652
1.662
1.657
1.642
1.637
1.647
1.652
1.632
1.628
1.642
1.652
1.642
1.637
1.642
1.652
1.637
1.618
1.628
1.637
1.637
1.632
1.632
1.652
1.647
1.623
1.628
1.642
1.642
1.637
1.632
1.642
1.647
1.618
1.613
1.618
1.618
1.598
1.574
1.569
1.574
1.554
1.549
1.588
1.642
1.701
1.769
1.862
1.975
2.072
2.136
2.219
2.283
2.307
2.292
2.253
2.209
2.131
2.014
1.906
1.813
1.725
1.637
1.559
1.52
1.496
1.461
1.442
1.461
1.486
1.5
1.51
1.535
1.569
1.588
1.584
1.608
1.642
1.657
1.657
1.652
1.662
1.667
1.637
1.628
1.642
1.652
1.647
1.637
1.647
1.662
1.647
1.632
1.647
1.662
1.662
1.657
1.662
1.681
1.681
1.657
1.667
1.686
1.686
1.676
1.672
1.686
1.696
1.672
1.672
1.686
1.696
1.691
1.686
1.696
1.72
1.711
1.696
1.711
1.725
1.72
1.706
1.711
1.725
1.72
1.701
1.716
1.74
1.75
1.755
1.755
1.774
1.784
1.769
1.764
1.784
1.794
1.794
1.789
1.804
1.828
1.823
1.818
1.838
1.857
1.867
1.862
1.872
1.896
1.896
1.882
1.887
1.911
1.921
1.921
1.911
1.926
1.931
1.901
1.891
1.901
1.901
1.891
1.877
1.877
1.887
1.867
1.838
1.838
1.833
1.813
1.789
1.769
1.764
1.745
1.711
1.701
1.716
1.716
1.706
1.696
1.701
1.696
1.667
1.642
1.642
1.642
1.623
1.608
1.608
1.618
1.608
1.593
1.603
1.623
1.618
1.608
1.608
1.618
1.613
1.588
1.593
1.608
1.608
1.603
1.593
1.603
1.613
1.593
1.588
1.608
1.613
1.608
1.603
1.613
1.628
1.613
1.593
1.603
1.618
1.613
1.603
1.603
1.618
1.618
1.593
1.603
1.623
1.632
1.628
1.618
1.632
1.637
1.613
1.603
1.618
1.623
1.618
1.613
1.618
1.628
1.613
1.593
1.608
1.623
1.618
1.608
1.608
1.628
1.628
1.603
1.608
1.623
1.628
1.623
1.618
1.632
1.642
1.623
1.613
1.632
1.642
1.632
1.628
1.632
1.647
1.632
1.613
1.623
1.632
1.632
1.628
1.628
1.642
1.647
1.618
1.618
1.637
1.642
1.632
1.623
1.642
1.647
1.623
1.618
1.632
1.642
1.632
1.623
1.628
1.642
1.632
1.613
1.623
1.637
1.637
1.628
1.623
1.637
1.637
1.618
1.623
1.642
1.647
1.642
1.637
1.652
1.667
1.647
1.642
1.662
1.672
1.672
1.667
1.676
1.696
1.686
1.667
1.676
1.696
1.696
1.691
1.691
1.711
1.716
1.686
1.686
1.696
1.691
1.681
1.667
1.667
1.672
1.647
1.632
1.637
1.642
1.632
1.618
1.618
1.628
1.613
1.593
1.608
1.632
1.637
1.632
1.632
1.652
1.652
1.628
1.623
1.642
1.642
1.637
1.628
1.637
1.642
1.623
1.608
1.623
1.632
1.628
1.618
1.618
1.632
1.618
1.588
1.584
1.588
1.579
1.559
1.554
1.574
1.593
1.603
1.652
1.745
1.838
1.931
2.028
2.136
2.229
2.268
2.283
2.297
2.273
2.209
2.121
2.023
1.935
1.823
1.706
1.632
1.574
1.515
1.471
1.447
1.452
1.461
1.447
1.461
1.5
1.53
1.549
1.564
1.593
1.623
1.618
1.618
1.637
1.657
1.647
1.637
1.637
1.652
1.647
1.628
1.637
1.652
1.657
1.647
1.647
1.662
1.667
1.637
1.637
1.652
1.657
1.657
1.652
1.667
1.686
1.672
1.662
1.681
1.691
1.686
1.676
1.676
1.691
1.681
1.662
1.676
1.701
1.701
1.696
1.691
1.711
1.711
1.691
1.691
1.711
1.72
1.716
1.711
1.73
1.745
1.735
1.73
1.75
1.764
1.764
1.764
1.774
1.794
1.789
1.769
1.784
1.808
1.818
1.823
1.828
1.852
1.867
1.852
1.857
1.877
1.887
1.887
1.887
1.901
1.921
1.906
1.896
1.911
1.921
1.916
1.901
1.906
1.916
1.906
1.877
1.882
1.891
1.882
1.862
1.852
1.852
1.843
1.804
1.794
1.794
1.789
1.769
1.75
1.745
1.75
1.716
1.686
1.681
1.681
1.662
1.642
1.642
1.647
1.637
1.618
1.623
1.637
1.632
1.618
1.613
1.618
1.618
1.588
1.588
1.608
1.613
1.608
1.598
1.603
1.613
1.593
1.574
1.588
1.593
1.593
1.584
1.588
1.603
1.598
1.584
1.593
1.618
1.618
1.613
1.613
1.623
1.623
1.598
1.593
1.608
1.613
1.603
1.593
1.603
1.618
1.603
1.588
1.603
1.618
1.613
1.603
1.603
1.623
1.618
1.598
1.603
1.623
1.623
1.613
1.613
1.632
1.637
1.608
1.603
1.618
1.628
1.623
1.613
1.618
1.632
1.618
1.608
1.623
1.637
1.632
1.618
1.618
1.628
1.618
1.598
1.613
1.637
1.642
1.637
1.637
1.647
1.652
1.623
1.613
1.628
1.632
1.623
1.618
1.628
1.647
1.632
1.618
1.628
1.642
1.637
1.628
1.628
1.637
1.632
1.603
1.603
1.618
1.618
1.613
1.613
1.628
1.637
1.623
1.623
1.642
1.652
1.647
1.642
1.652
1.662
1.647
1.628
1.637
1.647
1.642
1.637
1.642
1.657
1.657
1.637
1.647
1.667
1.667
1.667
1.667
1.686
1.696
1.676
1.676
1.701
1.711
1.701
1.691
1.691
1.701
1.681
1.657
1.667
1.676
1.672
1.657
1.652
1.662
1.652
1.623
1.623
1.632
1.632
1.623
1.623
1.642
1.647
1.628
1.618
1.632
1.632
1.623
1.613
1.618
1.632
1.618
1.603
1.623
1.637
1.637
1.628
1.628
1.637
1.632
1.608
1.613
1.632
1.637
1.628
1.613
1.618
1.608
1.569
1.549
1.549
1.544
1.535
1.53
1.564
1.623
1.676
1.74
1.848
1.96
2.058
2.141
2.214
2.283
2.297
2.263
2.224
2.175
2.092
1.984
1.872
1.779
1.691
1.584
1.515
1.491
1.471
1.452
1.442
1.452
1.481
1.486
1.486
1.52
1.559
1.579
1.588
1.608
1.642
1.652
1.637
1.642
1.657
1.657
1.647
1.637
1.652
1.657
1.642
1.637
1.652
1.662
1.657
1.647
1.657
1.672
1.662
1.642
1.657
1.676
1.681
1.676
1.681
1.696
1.691
1.662
1.662
1.676
1.681
1.672
1.672
1.691
1.706
1.691
1.691
1.711
1.72
1.72
1.711
1.716
1.73
1.711
1.696
1.711
1.725
1.73
1.725
1.73
1.75
1.755
1.74
1.75
1.769
1.774
1.769
1.769
1.789
1.808
1.799
1.799
1.828
1.843
1.848
1.848
1.857
1.877
1.867
1.857
1.877
1.896
1.901
1.901
1.906
1.926
1.931
1.906
1.906
1.921
1.921
1.911
1.906
1.911
1.916
1.891
1.872
1.877
1.877
1.867
1.848
1.843
1.848
1.818
1.784
1.779
1.779
1.76
1.735
1.72
1.72
1.706
1.672
1.662
1.672
1.667
1.652
1.647
1.652
1.657
1.637
1.628
1.642
1.647
1.642
1.628
1.628
1.637
1.618
1.598
1.603
1.618
1.618
1.608
1.608
1.628
1.632
1.608
1.608
1.623
1.623
1.613
1.608
1.618
1.628
1.608
1.603
1.618
1.628
1.618
1.608
1.618
1.628
1.613
1.593
1.603
1.623
1.623
1.618
1.623
1.637
1.637
1.613
1.613
1.632
1.637
1.623
1.618
1.628
1.637
1.618
1.613
1.623
1.637
1.632
1.623
1.632
1.647
1.632
1.618
1.632
1.647
1.647
1.637
1.637
1.647
1.647
1.623
1.628
1.642
1.647
1.637
1.632
1.642
1.652
1.632
1.623
1.637
1.647
1.637
1.628
1.628
1.642
1.632
1.613
1.623
1.637
1.642
1.637
1.637
1.657
1.662
1.637
1.637
1.652
1.652
1.647
1.642
1.652
1.667
1.642
1.637
1.652
1.667
1.667
1.657
1.662
1.681
1.667
1.652
1.667
1.681
1.686
1.681
1.691
1.706
1.711
1.691
1.696
1.716
1.72
1.706
1.691
1.701
1.701
1.672
1.652
1.657
1.657
1.647
1.632
1.637
1.652
1.637
1.618
1.632
1.647
1.647
1.637
1.637
1.652
1.652
1.628
1.623
1.637
1.637
1.628
1.623
1.637
1.652
1.637
1.628
1.647
1.657
1.652
1.637
1.637
1.647
1.628
1.608
1.618
1.628
1.628
1.608
1.598
1.608
1.598
1.569
1.559
1.574
1.588
1.608
1.642
1.716
1.808
1.877
1.96
2.058
2.146
2.199
2.219
2.219
2.199
2.131
2.028
1.94
1.852
1.755
1.662
1.588
1.544
1.51
1.461
1.447
1.457
1.466
1.471
1.476
1.5
1.53
1.53
1.54
1.574
1.608
1.623
1.628
1.642
1.667
1.662
1.642
1.647
1.662
1.662
1.657
1.657
1.676
1.681
1.662
1.662
1.676
1.681
1.672
1.662
1.672
1.681
1.667
1.657
1.672
1.691
1.686
1.681
1.686
1.701
1.691
1.676
1.681
1.701
1.706
1.701
1.696
1.711
1.72
1.696
1.696
1.716
1.72
1.72
1.716
1.73
1.745
1.73
1.72
1.74
1.76
1.764
1.76
1.764
1.784
1.779
1.764
1.769
1.794
1.799
1.799
1.808
1.833
1.848
1.838
1.843
1.867
1.877
1.877
1.877
1.891
1.906
1.891
1.882
1.906
1.921
1.921
1.911
1.916
1.931
1.926
1.901
1.906
1.916
1.916
1.901
1.891
1.901
1.901
1.877
1.862
1.867
1.857
1.838
1.813
1.808
1.808
1.779
1.75
1.75
1.745
1.73
1.711
1.701
1.701
1.686
1.652
1.652
1.662
1.657
1.642
1.632
1.647
1.652
1.628
1.623
1.637
1.642
1.632
1.618
1.618
1.628
1.603
1.584
1.593
1.608
1.603
1.593
1.603
1.618
1.613
1.593
1.603
1.623
1.623
1.618
1.613
1.623
1.628
1.603
1.593
1.613
1.623
1.618
1.613
1.628
1.642
1.623
1.608
1.623
1.632
1.628
1.613
1.618
1.632
1.628
1.608
1.618
1.637
1.637
1.628
1.628
1.642
1.652
1.632
1.628
1.647
1.647
1.642
1.632
1.637
1.647
1.632
1.618
1.632
1.647
1.637
1.628
1.628
1.642
1.637
1.618
1.628
1.647
1.647
1.642
1.632
1.642
1.647
1.623
1.618
1.632
1.642
1.637
1.637
1.647
1.667
1.652
1.632
1.642
1.652
1.652
1.647
1.652
1.672
1.667
1.642
1.642
1.657
1.662
1.647
1.642
1.657
1.667
1.647
1.647
1.667
1.681
1.676
1.672
1.686
1.706
1.696
1.686
1.701
1.711
1.711
1.696
1.696
1.706
1.696
1.672
1.672
1.681
1.676
1.667
1.657
1.662
1.667
1.642
1.632
1.642
1.647
1.637
1.628
1.632
1.647
1.632
1.618
1.632
1.647
1.642
1.637
1.632
1.647
1.637
1.613
1.618
1.637
1.647
1.642
1.637
1.652
1.652
1.628
1.613
1.632
1.637
1.632
1.623
1.623
1.632
1.613
1.584
1.588
1.593
1.579
1.564
1.574
1.608
1.642
1.672
1.75
1.848
1.935
2.019
2.092
2.17
2.219
2.204
2.18
2.146
2.082
1.989
1.887
1.799
1.725
1.637
1.564
1.535
1.515
1.491
1.471
1.466
1.481
1.486
1.476
1.496
1.53
1.554
1.569
1.588
1.618
1.637
1.628
1.623
1.642
1.647
1.642
1.637
1.652
1.667
1.657
1.637
1.647
1.662
1.662
1.657
1.662
1.676
1.681
1.662
1.667
1.691
1.696
1.686
1.681
1.691
1.701
1.681
1.672
1.686
1.701
1.696
1.686
1.691
1.706
1.691
1.676
1.691
1.716
1.716
1.711
1.711
1.73
1.73
1.711
1.716
1.74
1.745
1.735
1.73
1.75
1.764
1.745
1.735
1.75
1.764
1.764
1.764
1.779
1.799
1.794
1.784
1.799
1.823
1.828
1.828
1.843
1.867
1.867
1.852
1.857
1.882
1.891
1.887
1.887
1.901
1.916
1.896
1.891
1.911
1.921
1.911
1.901
1.901
1.911
1.896
1.872
1.877
1.882
1.872
1.852
1.838
1.848
1.833
1.794
1.779
1.779
1.764
1.745
1.725
1.725
1.725
1.691
1.672
1.681
1.681
1.667
1.652
1.652
1.662
1.642
1.618
1.623
1.632
1.623
1.613
1.613
1.628
1.632
1.608
1.613
1.628
1.623
1.613
1.598
1.603
1.608
1.584
1.579
1.598
1.613
1.613
1.608
1.613
1.628
1.618
1.598
1.608
1.618
1.613
1.603
1.603
1.623
1.628
1.613
1.618
1.642
1.647
1.637
1.628
1.628
1.632
1.603
1.584
1.598
1.608
1.603
1.603
1.613
1.637
1.632
1.618
1.628
1.642
1.642
1.632
1.628
1.642
1.642
1.618
1.618
1.637
1.642
1.637
1.632
1.642
1.652
1.632
1.618
1.628
1.637
1.632
1.628
1.632
1.647
1.637
1.623
1.632
1.647
1.647
1.642
1.637
1.647
1.652
1.628
1.628
1.647
1.657
1.652
1.647
1.657
1.667
1.647
1.632
1.647
1.657
1.647
1.637
1.642
1.657
1.647
1.628
1.637
1.652
1.652
1.647
1.647
1.672
1.681
1.667
1.672
1.691
1.696
1.691
1.691
1.701
1.711
1.686
1.676
1.686
1.696
1.686
1.672
1.662
1.672
1.652
1.623
1.628
1.642
1.637
1.628
1.628
1.642
1.647
1.623
1.628
1.642
1.652
1.642
1.637
1.642
1.647
1.623
1.608
1.618
1.632
1.628
1.623
1.632
1.652
1.642
1.628
1.632
1.642
1.637
1.623
1.613
1.618
1.608
1.579
1.569
1.574
1.569
1.559
1.549
1.564
1.593
1.613
1.657
1.745
1.843
1.931
2.009
2.097
2.175
2.209
2.199
2.195
2.165
2.102
2.009
1.916
1.843
1.755
1.657
1.588
1.554
1.525
1.491
1.471
1.476
1.486
1.476
1.476
1.5
1.53
1.544
1.554
1.579
1.613
1.618
1.608
1.628
1.652
1.657
1.652
1.652
1.667
1.672
1.642
1.637
1.652
1.652
1.647
1.642
1.652
1.667
1.652
1.642
1.662
1.672
1.672
1.662
1.667
1.686
1.681
1.657
1.667
1.681
1.676
1.672
1.672
1.696
1.706
1.686
1.686
1.701
1.711
1.701
1.691
1.696
1.711
1.691
1.681
1.701
1.716
1.716
1.706
1.711
1.73
1.73
1.711
1.725
1.75
1.76
1.76
1.764
1.784
1.794
1.779
1.784
1.808
1.823
1.823
1.828
1.848
1.867
1.857
1.848
1.862
1.882
1.882
1.877
1.877
1.896
1.891
1.877
1.882
1.896
1.896
1.882
1.877
1.887
1.887
1.862
1.857
1.872
1.872
1.857
1.838
1.833
1.828
1.794
1.764
1.76
1.76
1.74
1.72
1.711
1.716
1.701
1.667
1.662
1.667
1.657
1.647
1.637
1.647
1.652
1.628
1.618
1.632
1.632
1.618
1.608
1.613
1.623
1.608
1.584
1.598
1.608
1.608
1.598
1.603
1.618
1.618
1.593
1.603
1.618
1.618
1.603
1.593
1.603
1.608
1.584
1.579
1.593
1.598
1.593
1.584
1.593
1.613
1.598
1.584
1.598
1.618
1.613
1.603
1.603
1.618
1.608
1.584
1.593
1.608
1.613
1.608
1.608
1.623
1.628
1.603
1.603
1.623
1.632
1.628
1.623
1.628
1.637
1.618
1.598
1.608
1.623
1.618
1.613
1.623
1.647
1.647
1.623
1.632
1.642
1.642
1.628
1.618
1.628
1.632
1.613
1.608
1.632
1.642
1.642
1.637
1.647
1.657
1.637
1.618
1.623
1.628
1.623
1.613
1.613
1.632
1.632
1.613
1.618
1.637
1.637
1.628
1.628
1.642
1.647
1.628
1.623
1.637
1.652
1.647
1.642
1.652
1.667
1.647
1.628
1.637
1.652
1.652
1.647
1.652
1.676
1.676
1.662
1.676
1.696
1.701
1.691
1.686
1.701
1.706
1.681
1.676
1.691
1.696
1.681
1.667
1.667
1.676
1.652
1.632
1.637
1.647
1.642
1.628
1.628
1.642
1.637
1.618
1.623
1.647
1.647
1.642
1.637
1.652
1.657
1.628
1.618
1.628
1.632
1.628
1.618
1.628
1.642
1.628
1.613
1.623
1.637
1.637
1.628
1.623
1.637
1.632
1.608
1.603
1.608
1.598
1.579
1.559
1.559
1.554
1.535
1.54
1.588
1.652
1.72
1.804
1.906
2.019
2.097
2.155
2.219
2.263
2.258
2.219
2.17
2.111
2.023
1.901
1.808
1.73
1.647
1.569
1.51
1.486
1.471
1.437
1.437
1.461
1.496
1.505
1.52
1.549
1.584
1.588
1.588
1.613
1.637
1.637
1.632
1.632
1.647
1.647
1.628
1.632
1.657
1.657
1.647
1.637
1.647
1.652
1.632
1.623
1.637
1.652
1.652
1.647
1.662
1.676
1.667
1.647
1.657
1.672
1.667
1.662
1.662
1.676
1.676
1.657
1.662
1.686
1.691
1.686
1.681
1.696
1.711
1.696
1.691
1.711
1.72
1.716
1.706
1.711
1.725
1.711
1.696
1.711
1.73
1.74
1.74
1.745
1.764
1.769
1.755
1.764
1.794
1.804
1.808
1.813
1.828
1.848
1.833
1.828
1.843
1.852
1.852
1.848
1.857
1.882
1.877
1.862
1.877
1.901
1.906
1.901
1.901
1.916
1.906
1.882
1.877
1.887
1.882
1.867
1.857
1.857
1.857
1.823
1.799
1.799
1.794
1.774
1.75
1.745
1.745
1.725
1.696
1.696
1.701
1.686
1.676
1.667
1.676
1.672
1.642
1.637
1.647
1.642
1.628
1.618
1.623
1.628
1.603
1.598
1.613
1.618
1.613
1.603
1.603
1.618
1.603
1.584
1.598
1.613
1.613
1.608
1.608
1.623
1.618
1.593
1.593
1.608
1.613
1.608
1.603
1.613
1.623
1.608
1.598
1.613
1.623
1.623
1.613
1.618
1.628
1.613
1.593
1.598
1.618
1.613
1.603
1.608
1.628
1.632
1.613
1.613
1.637
1.637
1.628
1.618
1.632
1.642
1.623
1.613
1.632
1.637
1.632
1.628
1.632
1.642
1.628
1.608
1.613
1.632
1.632
1.623
1.628
1.647
1.647
1.628
1.623
1.637
1.637
1.628
1.623
1.632
1.647
1.628
1.618
1.632
1.647
1.642
1.632
1.632
1.642
1.623
1.598
1.608
1.623
1.623
1.618
1.618
1.637
1.642
1.618
1.618
1.632
1.642
1.637
1.632
1.647
1.662
1.647
1.637
1.647
1.657
1.647
1.637
1.637
1.652
1.647
1.628
1.637
1.657
1.652
1.647
1.642
1.657
1.657
1.632
1.632
1.652
1.662
1.657
1.657
1.672
1.691
1.681
1.672
1.691
1.706
1.701
1.691
1.691
1.706
1.696
1.672
1.676
1.691
1.686
1.672
1.662
1.672
1.667
1.637
1.632
1.647
1.652
1.647
1.642
1.657
1.667
1.642
1.623
1.632
1.642
1.632
1.623
1.623
1.637
1.628
1.608
1.613
1.632
1.628
1.623
1.623
1.637
1.637
1.618
1.613
1.632
1.637
1.628
1.623
1.628
1.637
1.608
1.584
1.584
1.584
1.564
1.544
1.544
1.569
1.593
1.623
1.701
1.808
1.911
2.004
2.102
2.204
2.273
2.292
2.297
2.292
2.253
2.175
2.077
1.984
1.891
1.774
1.667
1.603
1.554
1.505
1.471
1.461
1.481
1.481
1.476
1.505
1.54
1.554
1.564
1.579
1.613
1.632
1.623
1.628
1.652
1.657
1.647
1.637
1.647
1.657
1.637
1.623
1.637
1.652
1.657
1.647
1.652
1.667
1.662
1.642
1.652
1.672
1.672
1.667
1.667
1.691
1.696
1.676
1.676
1.691
1.696
1.686
1.676
1.686
1.701
1.691
1.681
1.691
1.701
1.701
1.691
1.696
1.716
1.711
1.691
1.701
1.72
1.725
1.72
1.72
1.74
1.75
1.735
1.735
1.755
1.764
1.76
1.76
1.774
1.794
1.779
1.774
1.794
1.818
1.823
1.823
1.833
1.852
1.852
1.838
1.852
1.882
1.891
1.891
1.896
1.911
1.921
1.901
1.896
1.916
1.921
1.911
1.901
1.906
1.921
1.901
1.887
1.896
1.901
1.887
1.867
1.857
1.857
1.833
1.794
1.784
1.784
1.769
1.745
1.725
1.725
1.72
1.681
1.667
1.676
1.676
1.667
1.657
1.662
1.672
1.647
1.623
1.628
1.632
1.623
1.608
1.608
1.623
1.618
1.598
1.608
1.623
1.628
1.618
1.618
1.623
1.628
1.598
1.593
1.608
1.618
1.613
1.603
1.608
1.618
1.603
1.588
1.598
1.613
1.613
1.608
1.613
1.628
1.628
1.608
1.613
1.628
1.628
1.623
1.618
1.628
1.637
1.613
1.603
1.623
1.628
1.623
1.618
1.628
1.642
1.623
1.608
1.618
1.632
1.628
1.623
1.623
1.637
1.632
1.608
1.613
1.628
1.632
1.623
1.618
1.628
1.637
1.623
1.618
1.642
1.647
1.637
1.623
1.628
1.637
1.618
1.598
1.608
1.623
1.623
1.623
1.628
1.642
1.637
1.618
1.618
1.632
1.632
1.623
1.618
1.637
1.647
1.628
1.623
1.642
1.647
1.642
1.632
1.637
1.647
1.632
1.613
1.623
1.637
1.637
1.632
1.637
1.657
1.657
1.637
1.642
1.652
1.647
1.632
1.618
1.628
1.632
1.608
1.598
1.618
1.632
1.632
1.632
1.642
1.662
1.647
1.632
1.642
1.652
1.652
1.642
1.642
1.662
1.657
1.632
1.642
1.662
1.667
1.662
1.667
1.686
1.701
1.686
1.681
1.696
1.711
1.706
1.696
1.706
1.716
1.701
1.681
1.691
1.706
1.696
1.676
1.672
1.681
1.676
1.647
1.642
1.652
1.652
1.637
1.628
1.637
1.642
1.618
1.613
1.628
1.642
1.637
1.623
1.628
1.642
1.628
1.608
1.623
1.637
1.637
1.628
1.628
1.642
1.642
1.618
1.618
1.632
1.637
1.623
1.613
1.618
1.613
1.584
1.559
1.559
1.554
1.54
1.53
1.549
1.598
1.642
1.701
1.808
1.931
2.033
2.126
2.214
2.292
2.331
2.312
2.283
2.243
2.17
2.072
1.96
1.867
1.774
1.662
1.584
1.544
1.51
1.476
1.452
1.457
1.471
1.471
1.471
1.505
1.544
1.569
1.584
1.603
1.632
1.642
1.623
1.623
1.637
1.642
1.637
1.632
1.652
1.667
1.647
1.637
1.652
1.657
1.652
1.642
1.652
1.667
1.662
1.647
1.662
1.676
1.667
1.657
1.652
1.667
1.667
1.647
1.652
1.676
1.686
1.686
1.681
1.696
1.706
1.686
1.676
1.686
1.696
1.691
1.686
1.691
1.716
1.706
1.696
1.711
1.73
1.735
1.725
1.725
1.74
1.74
1.72
1.725
1.75
1.76
1.764
1.769
1.794
1.813
1.799
1.799
1.818
1.833
1.828
1.823
1.833
1.857
1.852
1.843
1.862
1.891
1.901
1.901
1.906
1.921
1.916
1.891
1.891
1.911
1.916
1.911
1.906
1.916
1.926
1.896
1.882
1.882
1.877
1.857
1.833
1.828
1.833
1.813
1.784
1.784
1.784
1.769
1.745
1.72
1.725
1.711
1.681
1.672
1.681
1.676
1.657
1.642
1.647
1.652
1.623
1.603
1.613
1.618
1.613
1.603
1.608
1.623
1.613
1.598
1.608
1.623
1.618
1.603
1.598
1.613
1.608
1.584
1.584
1.608
1.618
1.613
1.608
1.618
1.628
1.608
1.588
1.598
1.608
1.598
1.588
1.598
1.613
1.608
1.588
1.598
1.613
1.613
1.608
1.608
1.623
1.623
1.598
1.598
1.618
1.618
1.613
1.608
1.618
1.632
1.613
1.603
1.618
1.632
1.628
1.618
1.623
1.632
1.623
1.603
1.613
1.632
1.632
1.623
1.618
1.632
1.628
1.603
1.608
1.628
1.632
1.632
1.628
1.642
1.657
1.637
1.628
1.637
1.642
1.632
1.623
1.623
1.637
1.628
1.608
1.618
1.632
1.632
1.623
1.623
1.637
1.642
1.623
1.618
1.637
1.637
1.632
1.623
1.632
1.642
1.628
1.613
1.628
1.642
1.642
1.632
1.637
1.652
1.642
1.618
1.623
1.637
1.642
1.632
1.632
1.647
1.647
1.623
1.623
1.637
1.642
1.632
1.623
1.632
1.642
1.628
1.618
1.632
1.647
1.647
1.637
1.642
1.657
1.652
1.632
1.642
1.657
1.667
1.667
1.672
1.691
1.701
1.676
1.672
1.686
1.691
1.686
1.681
1.691
1.706
1.691
1.681
1.701
1.711
1.706
1.691
1.691
1.701
1.691
1.662
1.662
1.672
1.667
1.657
1.652
1.662
1.667
1.637
1.632
1.642
1.642
1.632
1.623
1.628
1.642
1.628
1.613
1.632
1.647
1.642
1.637
1.637
1.652
1.642
1.623
1.628
1.642
1.637
1.628
1.623
1.642
1.642
1.618
1.613
1.628
1.628
1.613
1.593
1.588
1.584
1.554
1.535
1.554
1.588
1.628
1.681
1.764
1.877
1.97
2.053
2.146
2.234
2.283
2.292
2.278
2.253
2.199
2.097
1.999
1.916
1.823
1.72
1.628
1.569
1.525
1.476
1.437
1.437
1.452
1.461
1.471
1.5
1.544
1.569
1.574
1.598
1.632
1.647
1.647
1.647
1.662
1.662
1.632
1.628
1.642
1.652
1.647
1.642
1.652
1.667
1.657
1.642
1.662
1.681
1.681
1.672
1.672
1.686
1.676
1.652
1.657
1.672
1.672
1.657
1.657
1.676
1.686
1.667
1.667
1.686
1.696
1.691
1.686
1.691
1.706
1.691
1.676
1.691
1.706
1.706
1.701
1.711
1.73
1.735
1.716
1.725
1.745
1.745
1.74
1.74
1.755
1.764
1.745
1.745
1.769
1.784
1.794
1.799
1.818
1.843
1.833
1.823
1.843
1.862
1.862
1.857
1.867
1.887
1.887
1.872
1.882
1.901
1.906
1.896
1.896
1.906
1.911
1.891
1.887
1.906
1.911
1.901
1.891
1.891
1.901
1.872
1.848
1.848
1.852
1.838
1.813
1.799
1.799
1.774
1.735
1.72
1.72
1.706
1.686
1.676
1.681
1.681
1.652
1.642
1.657
1.657
1.642
1.628
1.628
1.637
1.618
1.603
1.613
1.623
1.618
1.608
1.613
1.628
1.623
1.593
1.598
1.613
1.613
1.603
1.598
1.613
1.618
1.593
1.588
1.603
1.613
1.598
1.588
1.588
1.603
1.593
1.579
1.598
1.613
1.608
1.603
1.603
1.618
1.613
1.588
1.598
1.618
1.618
1.613
1.608
1.623
1.628
1.603
1.593
1.613
1.623
1.618
1.608
1.618
1.632
1.618
1.598
1.608
1.623
1.623
1.618
1.613
1.632
1.632
1.608
1.613
1.632
1.632
1.623
1.623
1.637
1.642
1.623
1.613
1.628
1.632
1.623
1.623
1.632
1.652
1.637
1.618
1.628
1.642
1.637
1.632
1.628
1.642
1.642
1.618
1.618
1.632
1.632
1.623
1.618
1.628
1.637
1.618
1.613
1.632
1.642
1.637
1.628
1.632
1.642
1.632
1.613
1.628
1.637
1.628
1.618
1.613
1.628
1.628
1.608
1.618
1.642
1.647
1.642
1.632
1.647
1.652
1.628
1.618
1.632
1.647
1.642
1.637
1.647
1.667
1.657
1.637
1.652
1.667
1.667
1.662
1.662
1.686
1.686
1.667
1.676
1.701
1.711
1.701
1.696
1.701
1.706
1.676
1.662
1.672
1.672
1.657
1.642
1.642
1.657
1.642
1.623
1.628
1.642
1.637
1.628
1.628
1.642
1.637
1.613
1.618
1.632
1.637
1.628
1.623
1.632
1.642
1.618
1.603
1.618
1.628
1.623
1.618
1.628
1.642
1.632
1.618
1.623
1.637
1.632
1.618
1.613
1.618
1.613
1.579
1.574
1.579
1.569
1.559
1.564
1.598
1.652
1.696
1.769
1.877
1.984
2.067
2.141
2.199
2.248
2.234
2.185
2.141
2.077
1.984
1.882
1.784
1.706
1.628
1.535
1.486
1.471
1.457
1.442
1.437
1.457
1.481
1.481
1.496
1.53
1.564
1.579
1.588
1.613
1.642
1.637
1.623
1.632
1.647
1.642
1.637
1.637
1.652
1.657
1.642
1.647
1.672
1.676
1.672
1.667
1.672
1.681
1.652
1.642
1.662
1.672
1.672
1.667
1.672
1.686
1.676
1.662
1.672
1.691
1.691
1.691
1.696
1.711
1.711
1.686
1.686
1.701
1.701
1.696
1.696
1.711
1.725
1.716
1.711
1.725
1.74
1.74
1.735
1.745
1.764
1.76
1.745
1.76
1.779
1.779
1.774
1.779
1.799
1.808
1.794
1.804
1.828
1.838
1.833
1.833
1.848
1.867
1.852
1.852
1.877
1.896
1.896
1.891
1.901
1.916
1.906
1.882
1.887
1.901
1.901
1.891
1.891
1.906
1.906
1.877
1.872
1.882
1.877
1.857
1.838
1.833
1.833
1.799
1.774
1.774
1.769
1.75
1.725
1.716
1.72
1.701
1.667
1.667
1.676
1.672
1.657
1.657
1.667
1.662
1.628
1.623
1.632
1.632
1.618
1.603
1.608
1.618
1.598
1.588
1.608
1.623
1.618
1.608
1.613
1.628
1.613
1.593
1.598
1.613
1.613
1.603
1.598
1.613
1.613
1.588
1.588
1.603
1.608
1.603
1.598
1.613
1.628
1.613
1.603
1.623
1.637
1.632
1.623
1.623
1.637
1.628
1.603
1.608
1.623
1.623
1.613
1.613
1.628
1.632
1.608
1.608
1.628
1.632
1.628
1.623
1.632
1.647
1.632
1.623
1.637
1.652
1.647
1.637
1.637
1.647
1.632
1.613
1.623
1.637
1.642
1.632
1.632
1.647
1.652
1.632
1.628
1.642
1.647
1.642
1.637
1.652
1.667
1.647
1.632
1.642
1.652
1.642
1.632
1.632
1.652
1.647
1.628
1.632
1.652
1.652
1.642
1.637
1.647
1.647
1.623
1.618
1.637
1.642
1.637
1.632
1.642
1.657
1.642
1.637
1.652
1.662
1.657
1.647
1.652
1.667
1.657
1.637
1.647
1.667
1.667
1.662
1.662
1.676
1.681
1.662
1.657
1.676
1.686
1.681
1.681
1.696
1.711
1.696
1.686
1.701
1.711
1.706
1.691
1.686
1.691
1.676
1.647
1.647
1.657
1.657
1.647
1.642
1.657
1.662
1.637
1.632
1.647
1.652
1.647
1.642
1.647
1.657
1.642
1.623
1.637
1.647
1.642
1.632
1.637
1.652
1.642
1.623
1.628
1.647
1.642
1.632
1.632
1.647
1.652
1.628
1.613
1.623
1.613
1.598
1.579
1.574
1.579
1.564
1.559
1.598
1.657
1.72
1.789
1.882
1.989
2.072
2.121
2.18
2.219
2.209
2.165
2.097
2.023
1.935
1.818
1.72
1.657
1.598
1.549
1.505
1.496
1.491
1.471
1.457
1.471
1.491
1.5
1.51
1.54
1.579
1.598
1.598
1.623
1.647
1.657
1.652
1.647
1.662
1.667
1.642
1.647
1.667
1.681
1.676
1.667
1.672
1.686
1.672
1.657
1.672
1.681
1.681
1.667
1.672
1.691
1.686
1.667
1.676
1.696
1.701
1.691
1.686
1.696
1.701
1.672
1.672
1.686
1.696
1.696
1.701
1.716
1.73
1.716
1.706
1.72
1.735
1.735
1.725
1.725
1.745
1.74
1.725
1.73
1.755
1.76
1.755
1.76
1.779
1.794
1.779
1.784
1.808
1.818
1.823
1.818
1.828
1.848
1.838
1.828
1.843
1.862
1.862
1.862
1.872
1.896
1.901
1.887
1.896
1.921
1.921
1.911
1.906
1.916
1.916
1.887
1.882
1.891
1.896
1.882
1.867
1.867
1.872
1.843
1.818
1.818
1.818
1.804
1.779
1.769
1.774
1.755
1.72
1.706
1.711
1.701
1.681
1.667
1.672
1.676
1.647
1.642
1.652
1.657
1.647
1.632
1.632
1.637
1.613
1.593
1.603
1.618
1.618
1.618
1.618
1.637
1.632
1.608
1.603
1.618
1.613
1.603
1.598
1.613
1.623
1.603
1.603
1.618
1.623
1.613
1.598
1.603
1.613
1.603
1.584
1.603
1.618
1.618
1.613
1.613
1.628
1.628
1.608
1.613
1.632
1.628
1.618
1.613
1.628
1.632
1.613
1.608
1.623
1.637
1.632
1.628
1.632
1.642
1.623
1.603
1.613
1.628
1.628
1.623
1.628
1.647
1.642
1.628
1.628
1.647
1.647
1.637
1.632
1.642
1.652
1.632
1.628
1.642
1.657
1.647
1.637
1.642
1.657
1.642
1.628
1.637
1.652
1.647
1.637
1.637
1.647
1.647
1.618
1.618
1.632
1.637
1.632
1.632
1.647
1.657
1.642
1.632
1.647
1.657
1.652
1.642
1.642
1.657
1.642
1.628
1.637
1.652
1.652
1.647
1.647
1.662
1.662
1.642
1.642
1.662
1.662
1.657
1.652
1.667
1.681
1.672
1.672
1.696
1.711
1.711
1.701
1.706
1.716
1.701
1.672
1.676
1.686
1.676
1.667
1.662
1.672
1.667
1.637
1.637
1.647
1.647
1.632
1.628
1.637
1.642
1.628
1.623
1.642
1.652
1.652
1.647
1.652
1.662
1.647
1.628
1.632
1.642
1.642
1.632
1.632
1.647
1.642
1.618
1.618
1.632
1.637
1.628
1.623
1.632
1.637
1.613
1.598
1.603
1.603
1.588
1.569
1.574
1.598
1.608
1.632
1.706
1.799
1.882
1.96
2.038
2.116
2.165
2.16
2.151
2.131
2.072
1.984
1.891
1.813
1.735
1.642
1.569
1.535
1.51
1.486
1.466
1.471
1.496
1.496
1.486
1.51
1.54
1.554
1.564
1.579
1.613
1.628
1.613
1.623
1.642
1.647
1.642
1.637
1.652
1.667
1.652
1.642
1.662
1.676
1.672
1.662
1.672
1.686
1.672
1.652
1.662
1.681
1.681
1.676
1.681
1.696
1.701
1.681
1.681
1.696
1.696
1.691
1.681
1.691
1.701
1.681
1.676
1.696
1.711
1.711
1.706
1.711
1.73
1.72
1.706
1.72
1.74
1.74
1.73
1.735
1.755
1.76
1.74
1.735
1.755
1.755
1.75
1.75
1.764
1.784
1.774
1.774
1.804
1.823
1.823
1.823
1.833
1.852
1.848
1.833
1.848
1.872
1.877
1.877
1.882
1.901
1.911
1.891
1.891
1.906
1.911
1.906
1.896
1.906
1.911
1.887
1.872
1.877
1.882
1.872
1.852
1.843
1.843
1.818
1.789
1.784
1.789
1.779
1.755
1.745
1.745
1.735
1.706
1.691
1.696
1.691
1.672
1.662
1.672
1.676
1.657
1.642
1.647
1.647
1.637
1.623
1.618
1.628
1.618
1.593
1.598
1.618
1.613
1.608
1.608
1.623
1.628
1.608
1.608
1.628
1.628
1.618
1.608
1.613
1.623
1.603
1.593
1.608
1.618
1.618
1.613
1.618
1.632
1.628
1.608
1.613
1.632
1.632
1.623
1.618
1.632
1.628
1.603
1.603
1.623
1.632
1.632
1.623
1.637
1.647
1.628
1.608
1.623
1.632
1.632
1.628
1.637
1.652
1.647
1.628
1.637
1.652
1.647
1.637
1.632
1.642
1.642
1.618
1.618
1.637
1.642
1.637
1.628
1.637
1.652
1.637
1.628
1.642
1.657
1.647
1.642
1.647
1.662
1.652
1.628
1.637
1.652
1.652
1.642
1.642
1.657
1.657
1.632
1.632
1.647
1.657
1.647
1.637
1.647
1.662
1.642
1.632
1.642
1.652
1.647
1.637
1.647
1.662
1.657
1.637
1.642
1.657
1.657
1.652
1.647
1.667
1.672
1.647
1.647
1.672
1.681
1.676
1.672
1.686
1.701
1.686
1.681
1.696
1.711
1.701
1.691
1.696
1.706
1.696
1.667
1.667
1.681
1.676
1.662
1.657
1.667
1.667
1.642
1.637
1.647
1.652
1.637
1.628
1.637
1.647
1.632
1.623
1.642
1.657
1.657
1.647
1.647
1.662
1.647
1.623
1.628
1.642
1.642
1.628
1.628
1.642
1.647
1.623
1.618
1.637
1.642
1.637
1.623
1.623
1.628
1.593
1.564
1.569
1.574
1.584
1.593
1.637
1.711
1.779
1.843
1.94
2.043
2.116
2.16
2.185
2.195
2.175
2.102
2.028
1.96
1.882
1.784
1.696
1.632
1.593
1.535
1.491
1.486
1.491
1.486
1.481
1.491
1.515
1.525
1.52
1.549
1.584
1.603
1.618
1.628
1.657
1.672
1.652
1.647
1.667
1.672
1.662
1.652
1.662
1.672
1.657
1.642
1.657
1.672
1.672
1.667
1.676
1.691
1.686
1.672
1.676
1.696
1.696
1.686
1.681
1.696
1.701
1.676
1.676
1.696
1.706
1.696
1.686
1.696
1.711
1.696
1.686
1.701
1.716
1.711
1.701
1.706
1.725
1.72
1.701
1.711
1.73
1.74
1.74
1.75
1.774
1.784
1.764
1.764
1.784
1.794
1.789
1.784
1.799
1.818
1.808
1.804
1.828
1.852
1.852
1.848
1.848
1.867
1.867
1.848
1.862
1.887
1.896
1.896
1.901
1.921
1.931
1.901
1.891
1.896
1.896
1.882
1.867
1.867
1.882
1.862
1.843
1.852
1.857
1.848
1.823
1.808
1.808
1.784
1.745
1.735
1.735
1.725
1.706
1.696
1.701
1.701
1.672
1.662
1.676
1.676
1.667
1.657
1.662
1.672
1.652
1.632
1.642
1.652
1.642
1.632
1.632
1.652
1.647
1.628
1.632
1.642
1.642
1.628
1.618
1.628
1.632
1.608
1.608
1.628
1.642
1.637
1.632
1.637
1.647
1.628
1.608
1.618
1.628
1.623
1.613
1.613
1.628
1.618
1.598
1.603
1.623
1.623
1.618
1.618
1.632
1.642
1.618
1.613
1.632
1.642
1.637
1.628
1.637
1.647
1.632
1.618
1.623
1.637
1.632
1.623
1.628
1.647
1.647
1.628
1.632
1.647
1.652
1.642
1.637
1.647
1.657
1.637
1.632
1.652
1.662
1.657
1.652
1.662
1.676
1.662
1.642
1.647
1.657
1.647
1.637
1.632
1.647
1.642
1.623
1.632
1.657
1.662
1.652
1.647
1.652
1.657
1.632
1.628
1.642
1.652
1.642
1.637
1.642
1.657
1.637
1.623
1.632
1.647
1.642
1.637
1.642
1.662
1.667
1.652
1.657
1.667
1.662
1.647
1.637
1.647
1.652
1.632
1.628
1.652
1.667
1.667
1.667
1.672
1.686
1.667
1.647
1.662
1.681
1.681
1.681
1.686
1.711
1.716
1.696
1.701
1.716
1.716
1.701
1.686
1.696
1.696
1.667
1.652
1.662
1.667
1.662
1.652
1.662
1.672
1.662
1.642
1.652
1.667
1.657
1.642
1.637
1.652
1.647
1.628
1.628
1.637
1.642
1.632
1.628
1.642
1.647
1.628
1.623
1.637
1.647
1.642
1.642
1.647
1.667
1.647
1.623
1.623
1.623
1.608
1.588
1.574
1.584
1.574
1.554
1.574
1.628
1.676
1.735
1.808
1.906
2.004
2.067
2.131
2.199
2.229
2.214
2.17
2.116
2.048
1.945
1.838
1.755
1.691
1.618
1.554
1.515
1.5
1.486
1.457
1.457
1.476
1.491
1.5
1.515
1.549
1.579
1.579
1.593
1.628
1.652
1.657
1.657
1.667
1.676
1.662
1.642
1.647
1.662
1.657
1.647
1.647
1.662
1.662
1.642
1.647
1.667
1.672
1.662
1.662
1.676
1.686
1.667
1.667
1.686
1.696
1.691
1.686
1.691
1.706
1.696
1.676
1.691
1.706
1.701
1.696
1.701
1.716
1.716
1.696
1.701
1.72
1.725
1.72
1.72
1.735
1.745
1.725
1.72
1.735
1.745
1.745
1.74
1.75
1.769
1.764
1.75
1.769
1.794
1.799
1.794
1.799
1.823
1.828
1.808
1.813
1.833
1.843
1.843
1.843
1.857
1.877
1.862
1.862
1.882
1.891
1.891
1.882
1.891
1.911
1.901
1.882
1.891
1.906
1.896
1.882
1.872
1.877
1.862
1.828
1.813
1.818
1.808
1.784
1.769
1.774
1.769
1.74
1.716
1.725
1.72
1.706
1.686
1.681
1.686
1.662
1.637
1.647
1.657
1.657
1.647
1.642
1.652
1.647
1.618
1.618
1.628
1.628
1.618
1.603
1.613
1.623
1.603
1.588
1.603
1.613
1.608
1.603
1.613
1.632
1.623
1.608
1.618
1.632
1.632
1.618
1.613
1.628
1.623
1.603
1.608
1.628
1.632
1.628
1.628
1.642
1.652
1.632
1.628
1.637
1.642
1.632
1.623
1.628
1.637
1.628
1.608
1.618
1.637
1.632
1.628
1.628
1.647
1.642
1.623
1.623
1.642
1.642
1.637
1.628
1.642
1.652
1.637
1.628
1.642
1.652
1.642
1.632
1.632
1.647
1.632
1.608
1.623
1.637
1.637
1.632
1.632
1.647
1.652
1.632
1.637
1.657
1.662
1.657
1.652
1.662
1.672
1.647
1.632
1.642
1.642
1.637
1.623
1.632
1.647
1.637
1.623
1.637
1.652
1.647
1.632
1.628
1.642
1.642
1.618
1.618
1.637
1.642
1.642
1.637
1.652
1.662
1.642
1.632
1.647
1.662
1.657
1.647
1.647
1.662
1.647
1.628
1.637
1.652
1.652
1.647
1.652
1.672
1.676
1.652
1.657
1.676
1.681
1.676
1.672
1.691
1.711
1.696
1.686
1.701
1.706
1.701
1.686
1.691
1.701
1.686
1.667
1.667
1.681
1.676
1.662
1.652
1.662
1.657
1.628
1.628
1.642
1.647
1.642
1.637
1.647
1.657
1.637
1.623
1.637
1.647
1.642
1.637
1.642
1.652
1.642
1.618
1.623
1.637
1.632
1.628
1.632
1.652
1.652
1.628
1.628
1.637
1.637
1.623
1.598
1.598
1.598
1.569
1.554
1.564
1.579
1.588
1.603
1.647
1.72
1.789
1.857
1.955
2.063
2.141
2.195
2.224
2.243
2.219
2.146
2.072
1.999
1.906
1.799
1.706
1.637
1.588
1.525
1.481
1.476
1.476
1.471
1.471
1.486
1.515
1.525
1.525
1.554
1.588
1.608
1.618
1.628
1.652
1.662
1.637
1.632
1.652
1.652
1.642
1.637
1.647
1.662
1.647
1.642
1.662
1.676
1.676
1.667
1.676
1.696
1.686
1.667
1.672
1.681
1.681
1.667
1.667
1.681
1.686
1.667
1.672
1.691
1.696
1.686
1.676
1.686
1.696
1.681
1.667
1.686
1.706
1.706
1.701
1.711
1.73
1.725
1.711
1.72
1.735
1.74
1.73
1.73
1.755
1.76
1.74
1.745
1.764
1.774
1.769
1.769
1.784
1.799
1.789
1.784
1.808
1.833
1.833
1.833
1.843
1.867
1.867
1.852
1.862
1.882
1.887
1.882
1.882
1.891
1.896
1.872
1.872
1.887
1.891
1.882
1.877
1.882
1.887
1.862
1.838
1.843
1.838
1.818
1.804
1.799
1.804
1.784
1.75
1.745
1.75
1.735
1.716
1.701
1.696
1.691
1.657
1.647
1.657
1.652
1.642
1.628
1.632
1.642
1.618
1.603
1.613
1.623
1.618
1.603
1.608
1.623
1.613
1.593
1.598
1.618
1.618
1.608
1.603
1.618
1.623
1.598
1.593
1.613
1.618
1.608
1.598
1.603
1.613
1.593
1.584
1.598
1.613
1.608
1.603
1.608
1.632
1.628
1.603
1.613
1.623
1.628
1.623
1.623
1.632
1.637
1.613
1.608
1.623
1.623
1.613
1.598
1.608
1.623
1.608
1.603
1.623
1.637
1.637
1.628
1.628
1.637
1.628
1.603
1.608
1.628
1.632
1.632
1.632
1.652
1.657
1.632
1.628
1.642
1.647
1.637
1.628
1.637
1.647
1.632
1.618
1.632
1.642
1.637
1.628
1.628
1.642
1.632
1.613
1.623
1.637
1.637
1.628
1.628
1.642
1.652
1.628
1.628
1.642
1.652
1.647
1.637
1.642
1.652
1.637
1.623
1.628
1.637
1.628
1.618
1.618
1.632
1.628
1.603
1.613
1.632
1.637
1.632
1.632
1.647
1.652
1.628
1.628
1.642
1.652
1.642
1.637
1.647
1.662
1.647
1.632
1.642
1.657
1.647
1.642
1.642
1.657
1.652
1.632
1.642
1.657
1.657
1.652
1.647
1.662
1.672
1.647
1.642
1.662
1.672
1.672
1.667
1.681
1.701
1.691
1.681
1.691
1.706
1.696
1.686
1.681
1.696
1.686
1.662
1.662
1.681
1.681
1.667
1.657
1.667
1.667
1.637
1.632
1.647
1.652
1.642
1.632
1.642
1.652
1.637
1.623
1.632
1.642
1.642
1.632
1.637
1.652
1.642
1.623
1.628
1.642
1.642
1.632
1.632
1.647
1.657
1.637
1.628
1.647
1.647
1.632
1.613
1.613
1.613
1.584
1.559
1.559
1.569
1.569
1.579
1.613
1.681
1.745
1.813
1.916
2.028
2.121
2.19
2.234
2.268
2.263
2.204
2.141
2.077
1.984
1.877
1.774
1.696
1.632
1.559
1.496
1.481
1.476
1.471
1.466
1.481
1.505
1.52
1.52
1.544
1.584
1.603
1.618
1.628
1.657
1.672
1.652
1.642
1.657
1.662
1.652
1.647
1.652
1.667
1.652
1.637
1.652
1.667
1.667
1.657
1.657
1.676
1.672
1.652
1.662
1.681
1.686
1.676
1.676
1.696
1.706
1.681
1.672
1.686
1.696
1.691
1.681
1.691
1.706
1.691
1.676
1.686
1.701
1.706
1.701
1.706
1.73
1.725
1.706
1.716
1.735
1.735
1.725
1.725
1.74
1.755
1.74
1.74
1.769
1.784
1.784
1.779
1.794
1.808
1.799
1.784
1.799
1.818
1.818
1.818
1.828
1.852
1.857
1.843
1.857
1.882
1.882
1.877
1.872
1.891
1.906
1.887
1.887
1.901
1.911
1.901
1.887
1.887
1.891
1.867
1.843
1.848
1.857
1.843
1.823
1.818
1.818
1.804
1.764
1.76
1.76
1.745
1.725
1.711
1.711
1.706
1.672
1.657
1.662
1.662
1.647
1.637
1.642
1.652
1.637
1.618
1.623
1.632
1.623
1.608
1.603
1.618
1.608
1.588
1.598
1.623
1.623
1.618
1.613
1.623
1.632
1.608
1.603
1.618
1.628
1.623
1.613
1.623
1.637
1.623
1.608
1.618
1.628
1.623
1.613
1.618
1.632
1.632
1.608
1.613
1.628
1.628
1.618
1.613
1.623
1.632
1.608
1.603
1.623
1.637
1.632
1.628
1.632
1.647
1.632
1.613
1.623
1.637
1.632
1.618
1.618
1.632
1.628
1.608
1.613
1.632
1.632
1.628
1.623
1.637
1.647
1.632
1.628
1.642
1.647
1.642
1.628
1.632
1.642
1.628
1.613
1.628
1.642
1.647
1.642
1.642
1.662
1.657
1.628
1.623
1.637
1.632
1.623
1.613
1.623
1.632
1.613
1.608
1.623
1.637
1.632
1.628
1.637
1.657
1.642
1.632
1.642
1.652
1.647
1.637
1.637
1.652
1.647
1.628
1.628
1.647
1.647
1.642
1.642
1.652
1.657
1.637
1.628
1.642
1.647
1.642
1.632
1.632
1.642
1.632
1.618
1.632
1.647
1.652
1.642
1.647
1.662
1.657
1.632
1.637
1.652
1.652
1.642
1.637
1.652
1.662
1.642
1.632
1.647
1.657
1.652
1.642
1.652
1.672
1.667
1.657
1.672
1.696
1.696
1.691
1.696
1.716
1.716
1.696
1.696
1.716
1.72
1.706
1.696
1.701
1.696
1.667
1.647
1.657
1.662
1.657
1.647
1.652
1.672
1.657
1.637
1.647
1.662
1.652
1.642
1.642
1.657
1.652
1.623
1.623
1.637
1.637
1.628
1.623
1.637
1.647
1.632
1.628
1.642
1.647
1.637
1.628
1.628
1.642
1.623
1.603
1.608
1.618
1.608
1.588
1.579
1.584
1.574
1.554
1.574
1.623
1.676
1.735
1.818
1.921
2.023
2.097
2.165
2.234
2.268
2.263
2.224
2.175
2.116
2.014
1.901
1.813
1.73
1.647
1.574
1.525
1.5
1.476
1.442
1.447
1.471
1.491
1.505
1.525
1.564
1.598
1.603
1.613
1.642
1.657
1.657
1.647
1.647
1.657
1.642
1.628
1.637
1.657
1.662
1.652
1.657
1.672
1.676
1.657
1.657
1.672
1.676
1.667
1.657
1.672
1.681
1.667
1.662
1.681
1.691
1.691
1.681
1.691
1.706
1.696
1.681
1.691
1.711
1.711
1.701
1.696
1.711
1.711
1.686
1.691
1.706
1.716
1.711
1.711
1.725
1.74
1.725
1.72
1.74
1.755
1.755
1.755
1.764
1.784
1.774
1.764
1.774
1.794
1.799
1.794
1.799
1.818
1.828
1.808
1.813
1.833
1.848
1.848
1.852
1.877
1.891
1.882
1.877
1.896
1.906
1.906
1.896
1.901
1.916
1.906
1.887
1.891
1.901
1.896
1.882
1.872
1.877
1.867
1.833
1.823
1.838
1.828
1.804
1.779
1.774
1.764
1.73
1.706
1.706
1.706
1.696
1.681
1.681
1.691
1.676
1.647
1.652
1.662
1.657
1.637
1.632
1.642
1.637
1.608
1.603
1.618
1.618
1.603
1.598
1.613
1.623
1.603
1.593
1.608
1.618
1.618
1.608
1.613
1.628
1.618
1.598
1.613
1.623
1.618
1.608
1.598
1.613
1.613
1.588
1.588
1.608
1.613
1.608
1.608
1.623
1.637
1.618
1.608
1.623
1.632
1.623
1.613
1.613
1.628
1.618
1.598
1.608
1.628
1.632
1.623
1.623
1.637
1.642
1.618
1.623
1.637
1.642
1.632
1.628
1.632
1.637
1.618
1.603
1.623
1.632
1.628
1.618
1.623
1.637
1.628
1.608
1.618
1.632
1.632
1.623
1.623
1.637
1.637
1.613
1.608
1.628
1.632
1.628
1.623
1.632
1.642
1.623
1.613
1.623
1.632
1.628
1.618
1.632
1.647
1.642
1.628
1.637
1.647
1.647
1.637
1.632
1.647
1.652
1.632
1.632
1.647
1.647
1.642
1.632
1.642
1.652
1.628
1.613
1.628
1.642
1.637
1.628
1.628
1.642
1.628
1.608
1.623
1.637
1.637
1.628
1.623
1.637
1.637
1.613
1.613
1.632
1.642
1.637
1.637
1.647
1.662
1.642
1.632
1.642
1.647
1.637
1.628
1.632
1.647
1.637
1.618
1.623
1.647
1.652
1.652
1.657
1.676
1.681
1.657
1.657
1.676
1.681
1.676
1.672
1.686
1.706
1.691
1.681
1.696
1.711
1.706
1.696
1.696
1.711
1.701
1.676
1.681
1.691
1.681
1.667
1.657
1.667
1.667
1.637
1.637
1.647
1.652
1.647
1.642
1.652
1.667
1.647
1.632
1.647
1.652
1.642
1.628
1.628
1.637
1.632
1.618
1.628
1.647
1.647
1.637
1.637
1.647
1.647
1.618
1.613
1.628
1.628
1.623
1.613
1.623
1.628
1.603
1.579
1.579
1.579
1.569
1.559
1.574
1.623
1.667
1.716
1.808
1.926
2.019
2.107
2.185
2.253
2.283
2.268
2.234
2.195
2.121
2.023
1.911
1.818
1.73
1.628
1.544
1.505
1.481
1.452
1.437
1.442
1.466
1.476
1.481
1.51
1.554
1.579
1.593
1.608
1.637
1.657
1.642
1.647
1.662
1.667
1.657
1.652
1.657
1.662
1.642
1.628
1.642
1.657
1.657
1.652
1.662
1.681
1.676
1.657
1.672
1.691
1.691
1.681
1.676
1.691
1.691
1.667
1.667
1.686
1.691
1.681
1.676
1.686
1.706
1.691
1.676
1.691
1.701
1.701
1.696
1.701
1.72
1.72
1.706
1.72
1.74
1.74
1.73
1.73
1.75
1.76
1.735
1.74
1.76
1.769
1.764
1.764
1.779
1.799
1.789
1.784
1.804
1.828
1.828
1.828
1.838
1.862
1.862
1.852
1.862
1.887
1.896
1.901
1.901
1.921
1.921
1.896
1.891
1.906
1.911
1.896
1.887
1.896
1.906
1.887
1.872
1.877
1.887
1.877
1.857
1.848
1.848
1.828
1.794
1.784
1.784
1.774
1.75
1.735
