Num1
1.662
1.647
1.632
1.637
1.652
1.647
1.642
1.642
1.657
1.662
1.642
1.637
1.652
1.652
1.642
1.632
1.637
1.647
1.632
1.623
1.637
1.652
1.647
1.637
1.642
1.657
1.652
1.637
1.647
1.667
1.667
1.657
1.662
1.672
1.676
1.657
1.657
1.681
1.691
1.691
1.691
1.711
1.72
1.706
1.696
1.711
1.72
1.711
1.706
1.711
1.725
1.716
1.696
1.701
1.706
1.691
1.672
1.657
1.667
1.667
1.642
1.637
1.652
1.647
1.637
1.628
1.632
1.642
1.628
1.618
1.637
1.647
1.642
1.632
1.632
1.647
1.632
1.618
1.618
1.632
1.623
1.603
1.593
1.593
1.584
1.554
1.554
1.584
1.613
1.642
1.706
1.804
1.921
2.014
2.102
2.195
2.258
2.283
2.268
2.234
2.185
2.092
1.979
1.891
1.813
1.735
1.662
1.618
1.608
1.598
1.579
1.588
1.623
1.642
1.647
1.642
1.647
1.652
1.623
1.603
1.608
1.618
1.613
1.608
1.613
1.628
1.618
1.603
1.613
1.632
1.632
1.623
1.623
1.637
1.637
1.613
1.613
1.628
1.632
1.623
1.618
1.632
1.647
1.632
1.628
1.642
1.657
1.647
1.642
1.647
1.657
1.647
1.628
1.637
1.652
1.652
1.647
1.647
1.667
1.676
1.657
1.657
1.676
1.681
1.672
1.662
1.672
1.686
1.672
1.667
1.681
1.696
1.691
1.686
1.691
1.706
1.696
1.681
1.686
1.701
1.701
1.696
1.696
1.711
1.711
1.696
1.696
1.711
1.716
1.711
1.701
1.716
1.73
1.716
1.706
1.72
1.73
1.725
1.716
1.716
1.725
1.72
1.701
1.706
1.725
1.72
1.711
1.711
1.72
1.72
1.701
1.701
1.716
1.72
1.716
1.711
1.725
1.74
1.72
1.711
1.725
1.73
1.72
1.701
1.701
1.706
1.696
1.676
1.686
1.701
1.696
1.686
1.681
1.691
1.686
1.662
1.652
1.662
1.662
1.647
1.637
1.647
1.652
1.632
1.618
1.632
1.642
1.637
1.628
1.632
1.652
1.647
1.632
1.642
1.657
1.652
1.642
1.642
1.652
1.657
1.632
1.628
1.642
1.647
1.637
1.628
1.637
1.652
1.637
1.628
1.647
1.662
1.652
1.642
1.642
1.657
1.647
1.632
1.642
1.662
1.662
1.657
1.652
1.662
1.662
1.637
1.637
1.652
1.652
1.642
1.637
1.642
1.652
1.637
1.632
1.642
1.652
1.647
1.637
1.637
1.652
1.642
1.623
1.628
1.642
1.642
1.632
1.637
1.647
1.652
1.632
1.632
1.647
1.652
1.642
1.642
1.652
1.662
1.647
1.642
1.662
1.681
1.676
1.676
1.681
1.706
1.701
1.686
1.696
1.711
1.711
1.701
1.701
1.716
1.716
1.696
1.696
1.711
1.711
1.696
1.676
1.672
1.676
1.647
1.628
1.637
1.642
1.632
1.623
1.623
1.637
1.632
1.613
1.618
1.632
1.632
1.628
1.628
1.647
1.647
1.628
1.623
1.637
1.642
1.628
1.618
1.618
1.623
1.598
1.584
1.588
1.598
1.593
1.593
1.623
1.681
1.735
1.794
1.882
1.97
2.028
2.063
2.087
2.107
2.097
2.043
1.989
1.94
1.877
1.804
1.73
1.686
1.657
1.613
1.584
1.593
1.613
1.618
1.628
1.647
1.672
1.667
1.647
1.652
1.662
1.657
1.642
1.637
1.647
1.652
1.632
1.632
1.652
1.662
1.657
1.657
1.662
1.672
1.652
1.637
1.652
1.667
1.662
1.652
1.662
1.676
1.676
1.657
1.672
1.691
1.691
1.681
1.676
1.686
1.691
1.672
1.672
1.686
1.696
1.691
1.691
1.701
1.72
1.711
1.701
1.711
1.72
1.711
1.701
1.711
1.725
1.72
1.706
1.72
1.74
1.745
1.735
1.735
1.745
1.75
1.73
1.73
1.745
1.755
1.75
1.75
1.764
1.774
1.76
1.75
1.764
1.774
1.774
1.764
1.769
1.784
1.784
1.769
1.779
1.794
1.794
1.784
1.784
1.799
1.808
1.789
1.789
1.808
1.818
1.808
1.804
1.808
1.818
1.804
1.794
1.808
1.823
1.818
1.818
1.823
1.838
1.833
1.818
1.823
1.838
1.833
1.828
1.823
1.838
1.838
1.813
1.813
1.828
1.833
1.823
1.813
1.818
1.828
1.813
1.804
1.813
1.823
1.818
1.808
1.808
1.818
1.813
1.789
1.799
1.813
1.813
1.808
1.804
1.818
1.823
1.804
1.799
1.813
1.818
1.813
1.804
1.818
1.833
1.818
1.808
1.823
1.833
1.823
1.808
1.808
1.823
1.813
1.789
1.799
1.813
1.813
1.804
1.804
1.818
1.823
1.804
1.799
1.813
1.818
1.804
1.794
1.799
1.813
1.794
1.779
1.789
1.804
1.799
1.789
1.789
1.799
1.789
1.764
1.764
1.779
1.774
1.764
1.76
1.774
1.779
1.76
1.76
1.779
1.784
1.774
1.764
1.769
1.779
1.764
1.75
1.764
1.779
1.769
1.764
1.769
1.784
1.779
1.764
1.774
1.794
1.789
1.784
1.779
1.794
1.799
1.774
1.769
1.784
1.784
1.774
1.76
1.764
1.769
1.745
1.725
1.73
1.73
1.716
1.706
1.701
1.711
1.701
1.676
1.681
1.696
1.691
1.681
1.676
1.691
1.696
1.676
1.676
1.691
1.696
1.681
1.672
1.676
1.681
1.657
1.637
1.647
1.652
1.642
1.632
1.632
1.647
1.642
1.637
1.667
1.716
1.769
1.828
1.887
1.96
2.014
2.028
2.048
2.063
2.053
2.009
1.95
1.906
1.857
1.789
1.725
1.696
1.676
1.642
1.618
1.613
1.628
1.632
1.623
1.637
1.657
1.657
1.647
1.647
1.662
1.662
1.642
1.632
1.647
1.642
1.628
1.618
1.628
1.637
1.623
1.618
1.637
1.657
1.652
1.642
1.642
1.652
1.642
1.623
1.628
1.647
1.647
1.637
1.637
1.652
1.657
1.637
1.637
1.657
1.662
1.657
1.652
1.667
1.676
1.662
1.647
1.662
1.676
1.672
1.667
1.672
1.686
1.686
1.667
1.676
1.696
1.696
1.681
1.681
1.691
1.691
1.672
1.667
1.681
1.686
1.676
1.672
1.676
1.691
1.676
1.662
1.676
1.691
1.686
1.681
1.686
1.701
1.696
1.676
1.681
1.696
1.691
1.676
1.672
1.681
1.686
1.667
1.662
1.676
1.681
1.672
1.662
1.667
1.676
1.662
1.652
1.662
1.672
1.667
1.652
1.657
1.667
1.657
1.637
1.637
1.657
1.652
1.642
1.637
1.647
1.647
1.628
1.623
1.637
1.637
1.628
1.618
1.628
1.637
1.618
1.603
1.608
1.618
1.603
1.588
1.588
1.598
1.588
1.569
1.569
1.584
1.574
1.564
1.559
1.569
1.574
1.554
1.549
1.569
1.574
1.569
1.564
1.569
1.584
1.569
1.554
1.569
1.584
1.574
1.569
1.574
1.588
1.588
1.574
1.579
1.598
1.593
1.584
1.574
1.588
1.588
1.569
1.569
1.588
1.598
1.593
1.588
1.598
1.608
1.588
1.574
1.588
1.598
1.593
1.584
1.588
1.603
1.598
1.584
1.588
1.608
1.603
1.593
1.588
1.608
1.613
1.598
1.593
1.613
1.618
1.608
1.603
1.613
1.623
1.608
1.598
1.608
1.628
1.628
1.623
1.632
1.652
1.657
1.642
1.647
1.662
1.662
1.652
1.647
1.657
1.662
1.637
1.632
1.647
1.647
1.637
1.623
1.623
1.628
1.603
1.584
1.593
1.603
1.593
1.588
1.588
1.603
1.603
1.584
1.588
1.608
1.608
1.593
1.588
1.598
1.603
1.584
1.579
1.598
1.608
1.598
1.588
1.588
1.598
1.574
1.554
1.559
1.569
1.564
1.564
1.588
1.637
1.681
1.725
1.804
1.887
1.94
1.975
1.994
2.019
2.014
1.96
1.916
1.877
1.823
1.76
1.706
1.667
1.642
1.603
1.569
1.574
1.584
1.584
1.584
1.598
1.618
1.618
1.598
1.603
1.613
1.608
1.598
1.593
1.608
1.613
1.593
1.588
1.603
1.613
1.603
1.598
1.608
1.623
1.613
1.603
1.618
1.632
1.632
1.623
1.623
1.637
1.632
1.613
1.623
1.637
1.637
1.623
1.618
1.632
1.637
1.623
1.618
1.637
1.642
1.637
1.637
1.647
1.667
1.652
1.637
1.652
1.662
1.652
1.642
1.642
1.657
1.657
1.642
1.657
1.676
1.676
1.667
1.662
1.676
1.681
1.657
1.657
1.676
1.686
1.686
1.681
1.691
1.701
1.686
1.672
1.681
1.696
1.691
1.686
1.686
1.706
1.701
1.681
1.686
1.701
1.701
1.686
1.681
1.696
1.706
1.686
1.681
1.696
1.701
1.696
1.686
1.696
1.706
1.686
1.676
1.686
1.696
1.691
1.681
1.681
1.696
1.691
1.672
1.676
1.696
1.691
1.676
1.672
1.681
1.686
1.662
1.657
1.676
1.681
1.672
1.662
1.672
1.681
1.662
1.637
1.642
1.647
1.637
1.628
1.628
1.642
1.637
1.618
1.628
1.642
1.642
1.632
1.628
1.637
1.647
1.628
1.623
1.642
1.652
1.642
1.637
1.647
1.657
1.637
1.623
1.637
1.647
1.642
1.632
1.637
1.652
1.652
1.637
1.647
1.662
1.662
1.657
1.652
1.667
1.672
1.652
1.652
1.667
1.672
1.662
1.652
1.662
1.672
1.657
1.642
1.657
1.672
1.667
1.657
1.662
1.672
1.667
1.647
1.652
1.672
1.667
1.657
1.652
1.662
1.667
1.647
1.642
1.657
1.667
1.662
1.657
1.662
1.676
1.662
1.652
1.662
1.672
1.667
1.657
1.657
1.672
1.672
1.657
1.662
1.686
1.691
1.681
1.681
1.696
1.701
1.681
1.681
1.696
1.706
1.701
1.696
1.706
1.72
1.706
1.691
1.696
1.701
1.691
1.672
1.662
1.667
1.652
1.628
1.628
1.647
1.647
1.642
1.637
1.657
1.662
1.642
1.642
1.657
1.662
1.652
1.642
1.642
1.652
1.637
1.618
1.632
1.647
1.637
1.623
1.618
1.623
1.608
1.574
1.569
1.584
1.593
1.613
1.652
1.725
1.818
1.896
1.979
2.077
2.141
2.17
2.165
2.151
2.116
2.043
1.96
1.891
1.838
1.769
1.706
1.667
1.647
1.623
1.588
1.588
1.608
1.623
1.623
1.628
1.647
1.652
1.623
1.613
1.618
1.618
1.608
1.598
1.608
1.623
1.613
1.603
1.618
1.628
1.628
1.613
1.613
1.628
1.623
1.603
1.608
1.628
1.632
1.628
1.628
1.637
1.642
1.623
1.613
1.628
1.637
1.632
1.628
1.637
1.652
1.637
1.623
1.632
1.642
1.637
1.628
1.628
1.647
1.647
1.628
1.637
1.657
1.652
1.642
1.637
1.647
1.652
1.632
1.632
1.652
1.667
1.662
1.657
1.667
1.681
1.672
1.657
1.672
1.681
1.676
1.667
1.667
1.686
1.686
1.667
1.672
1.686
1.691
1.681
1.681
1.691
1.696
1.676
1.672
1.686
1.696
1.691
1.676
1.681
1.696
1.686
1.672
1.686
1.696
1.691
1.681
1.676
1.691
1.686
1.662
1.662
1.676
1.681
1.672
1.667
1.681
1.686
1.667
1.657
1.667
1.672
1.662
1.647
1.652
1.662
1.647
1.632
1.642
1.657
1.652
1.642
1.642
1.657
1.652
1.628
1.628
1.637
1.637
1.623
1.613
1.623
1.623
1.603
1.598
1.613
1.623
1.613
1.608
1.618
1.637
1.623
1.608
1.618
1.628
1.623
1.603
1.608
1.623
1.618
1.598
1.608
1.623
1.628
1.618
1.613
1.623
1.632
1.613
1.608
1.628
1.632
1.628
1.618
1.623
1.637
1.623
1.608
1.623
1.632
1.632
1.623
1.623
1.637
1.632
1.613
1.618
1.637
1.637
1.628
1.623
1.632
1.637
1.618
1.613
1.632
1.637
1.632
1.623
1.632
1.647
1.632
1.623
1.628
1.637
1.628
1.613
1.613
1.628
1.623
1.603
1.608
1.623
1.628
1.618
1.613
1.628
1.637
1.618
1.613
1.628
1.637
1.628
1.613
1.618
1.632
1.618
1.603
1.618
1.632
1.632
1.623
1.623
1.637
1.637
1.618
1.618
1.637
1.637
1.628
1.628
1.642
1.652
1.637
1.637
1.657
1.667
1.662
1.652
1.657
1.667
1.657
1.642
1.652
1.672
1.672
1.667
1.672
1.691
1.691
1.672
1.672
1.686
1.681
1.662
1.652
1.652
1.652
1.623
1.613
1.628
1.637
1.628
1.618
1.623
1.637
1.623
1.608
1.618
1.632
1.628
1.618
1.623
1.632
1.628
1.608
1.608
1.618
1.618
1.603
1.588
1.593
1.588
1.564
1.554
1.569
1.588
1.603
1.632
1.696
1.789
1.872
1.955
2.058
2.141
2.185
2.195
2.185
2.165
2.107
2.014
1.931
1.872
1.799
1.73
1.676
1.652
1.632
1.598
1.584
1.598
1.613
1.613
1.618
1.632
1.642
1.632
1.608
1.613
1.628
1.618
1.608
1.608
1.623
1.618
1.593
1.598
1.613
1.618
1.613
1.608
1.623
1.632
1.613
1.608
1.623
1.628
1.623
1.613
1.618
1.632
1.623
1.608
1.623
1.637
1.632
1.628
1.632
1.647
1.642
1.623
1.628
1.642
1.642
1.632
1.628
1.637
1.647
1.628
1.628
1.642
1.657
1.652
1.642
1.657
1.672
1.662
1.647
1.662
1.676
1.672
1.662
1.667
1.681
1.681
1.662
1.662
1.681
1.681
1.672
1.672
1.681
1.696
1.676
1.672
1.691
1.701
1.701
1.691
1.696
1.711
1.696
1.681
1.691
1.706
1.696
1.686
1.686
1.701
1.706
1.686
1.686
1.706
1.711
1.701
1.691
1.701
1.706
1.686
1.676
1.686
1.691
1.686
1.676
1.686
1.696
1.686
1.672
1.686
1.701
1.696
1.686
1.681
1.696
1.691
1.667
1.667
1.681
1.681
1.667
1.657
1.667
1.672
1.647
1.637
1.652
1.657
1.647
1.637
1.642
1.657
1.642
1.628
1.632
1.637
1.632
1.623
1.623
1.637
1.632
1.618
1.618
1.637
1.637
1.632
1.623
1.632
1.637
1.618
1.613
1.632
1.637
1.632
1.623
1.628
1.642
1.632
1.618
1.628
1.647
1.647
1.642
1.637
1.647
1.647
1.623
1.623
1.642
1.642
1.637
1.628
1.642
1.652
1.632
1.623
1.642
1.647
1.637
1.628
1.632
1.647
1.637
1.623
1.632
1.647
1.642
1.632
1.632
1.642
1.642
1.623
1.628
1.642
1.642
1.632
1.628
1.642
1.652
1.632
1.628
1.642
1.652
1.637
1.628
1.632
1.642
1.628
1.613
1.623
1.642
1.637
1.628
1.632
1.647
1.647
1.628
1.628
1.642
1.642
1.632
1.628
1.632
1.637
1.623
1.613
1.632
1.642
1.637
1.628
1.632
1.647
1.637
1.623
1.632
1.647
1.642
1.632
1.632
1.647
1.647
1.623
1.623
1.637
1.637
1.632
1.628
1.642
1.647
1.632
1.628
1.642
1.652
1.642
1.632
1.632
1.647
1.637
1.618
1.628
1.642
1.647
1.637
1.637
1.647
1.647
1.628
1.628
1.647
1.642
1.632
1.628
1.637
1.647
1.628
1.618
1.637
1.647
1.637
1.628
1.637
1.647
1.637
1.623
1.632
1.647
1.647
1.637
1.637
1.652
1.652
1.632
1.632
1.647
1.647
1.637
1.632
1.647
1.657
1.642
1.637
1.657
1.667
1.662
1.652
1.662
1.676
1.667
1.652
1.662
1.676
1.676
1.667
1.667
1.681
1.681
1.667
1.672
1.696
1.706
1.701
1.701
1.72
1.73
1.711
1.701
1.711
1.711
1.691
1.676
1.672
1.676
1.662
1.642
1.647
1.662
1.657
1.647
1.642
1.652
1.652
1.632
1.637
1.652
1.657
1.647
1.642
1.657
1.667
1.647
1.632
1.642
1.647
1.632
1.613
1.608
1.613
1.588
1.569
1.579
1.598
1.618
1.642
1.696
1.784
1.887
1.97
2.077
2.175
2.234
2.253
2.243
2.229
2.185
2.097
2.009
1.94
1.877
1.808
1.74
1.701
1.676
1.642
1.608
1.613
1.632
1.642
1.647
1.657
1.676
1.672
1.647
1.637
1.642
1.637
1.623
1.618
1.628
1.637
1.623
1.618
1.637
1.647
1.642
1.637
1.642
1.657
1.647
1.632
1.637
1.657
1.652
1.642
1.642
1.657
1.657
1.637
1.637
1.652
1.657
1.642
1.642
1.652
1.662
1.642
1.637
1.652
1.662
1.662
1.652
1.662
1.676
1.667
1.652
1.662
1.681
1.681
1.672
1.672
1.686
1.681
1.662
1.662
1.676
1.681
1.672
1.672
1.686
1.696
1.686
1.676
1.691
1.706
1.696
1.686
1.691
1.711
1.696
1.681
1.691
1.706
1.701
1.691
1.691
1.706
1.711
1.696
1.701
1.72
1.72
1.711
1.706
1.711
1.72
1.706
1.696
1.711
1.72
1.716
1.706
1.711
1.725
1.711
1.691
1.696
1.711
1.701
1.696
1.696
1.711
1.711
1.686
1.686
1.706
1.706
1.696
1.686
1.696
1.701
1.681
1.672
1.691
1.701
1.696
1.686
1.691
1.706
1.691
1.672
1.676
1.691
1.681
1.672
1.667
1.676
1.672
1.647
1.647
1.662
1.662
1.647
1.637
1.647
1.657
1.642
1.632
1.647
1.657
1.652
1.642
1.647
1.657
1.647
1.632
1.642
1.657
1.652
1.642
1.642
1.657
1.657
1.632
1.637
1.652
1.657
1.647
1.647
1.657
1.667
1.652
1.642
1.657
1.667
1.657
1.642
1.642
1.652
1.637
1.623
1.632
1.647
1.652
1.642
1.647
1.662
1.667
1.647
1.647
1.662
1.667
1.652
1.642
1.652
1.657
1.637
1.628
1.642
1.652
1.647
1.642
1.647
1.662
1.652
1.637
1.642
1.652
1.647
1.637
1.637
1.652
1.652
1.632
1.632
1.652
1.657
1.647
1.642
1.652
1.662
1.642
1.632
1.647
1.652
1.642
1.632
1.637
1.647
1.637
1.623
1.628
1.647
1.647
1.637
1.637
1.652
1.652
1.628
1.628
1.647
1.652
1.642
1.637
1.652
1.657
1.642
1.632
1.647
1.657
1.652
1.642
1.647
1.662
1.652
1.637
1.647
1.662
1.662
1.647
1.647
1.662
1.662
1.637
1.637
1.647
1.647
1.637
1.632
1.642
1.652
1.637
1.628
1.642
1.652
1.647
1.642
1.647
1.662
1.652
1.632
1.642
1.657
1.662
1.652
1.652
1.667
1.667
1.647
1.647
1.662
1.667
1.657
1.647
1.657
1.662
1.642
1.632
1.647
1.657
1.647
1.637
1.642
1.657
1.647
1.632
1.642
1.662
1.657
1.652
1.652
1.667
1.667
1.647
1.642
1.662
1.667
1.657
1.652
1.667
1.676
1.662
1.647
1.657
1.667
1.657
1.642
1.652
1.667
1.662
1.652
1.672
1.696
1.696
1.686
1.686
1.696
1.696
1.681
1.686
1.716
1.725
1.725
1.73
1.745
1.76
1.745
1.73
1.74
1.74
1.725
1.716
1.72
1.73
1.716
1.701
1.701
1.716
1.706
1.691
1.686
1.691
1.686
1.662
1.657
1.672
1.676
1.667
1.657
1.667
1.672
1.652
1.642
1.652
1.662
1.652
1.642
1.647
1.662
1.652
1.632
1.632
1.637
1.618
1.598
1.588
1.598
1.603
1.603
1.637
1.711
1.799
1.896
1.999
2.111
2.204
2.243
2.263
2.273
2.258
2.199
2.116
2.038
1.96
1.872
1.779
1.725
1.691
1.657
1.623
1.613
1.628
1.637
1.632
1.647
1.672
1.676
1.662
1.647
1.652
1.652
1.632
1.623
1.637
1.647
1.642
1.632
1.632
1.647
1.642
1.628
1.637
1.652
1.652
1.642
1.637
1.647
1.647
1.628
1.632
1.652
1.657
1.652
1.647
1.657
1.667
1.652
1.642
1.652
1.667
1.657
1.652
1.657
1.676
1.667
1.652
1.662
1.676
1.672
1.662
1.662
1.681
1.681
1.667
1.667
1.686
1.691
1.681
1.676
1.686
1.701
1.681
1.672
1.691
1.701
1.696
1.691
1.696
1.711
1.701
1.686
1.691
1.711
1.711
1.701
1.701
1.716
1.72
1.701
1.701
1.72
1.725
1.716
1.711
1.72
1.735
1.72
1.716
1.73
1.74
1.73
1.72
1.72
1.73
1.72
1.706
1.711
1.725
1.725
1.716
1.716
1.725
1.725
1.706
1.706
1.72
1.725
1.716
1.711
1.72
1.725
1.706
1.691
1.706
1.716
1.706
1.696
1.706
1.72
1.711
1.696
1.701
1.72
1.711
1.701
1.691
1.701
1.701
1.676
1.672
1.681
1.681
1.672
1.662
1.662
1.672
1.647
1.637
1.652
1.662
1.657
1.652
1.657
1.667
1.662
1.642
1.647
1.657
1.652
1.642
1.637
1.652
1.657
1.637
1.637
1.657
1.662
1.657
1.647
1.657
1.672
1.657
1.642
1.657
1.667
1.657
1.652
1.652
1.667
1.662
1.642
1.652
1.676
1.672
1.662
1.662
1.676
1.681
1.652
1.652
1.662
1.667
1.657
1.647
1.662
1.672
1.657
1.647
1.662
1.676
1.667
1.657
1.662
1.676
1.667
1.642
1.652
1.662
1.662
1.652
1.647
1.662
1.667
1.647
1.652
1.667
1.676
1.662
1.652
1.657
1.667
1.642
1.632
1.642
1.657
1.652
1.647
1.652
1.667
1.657
1.642
1.647
1.662
1.662
1.657
1.652
1.667
1.667
1.642
1.642
1.652
1.652
1.642
1.637
1.652
1.662
1.652
1.642
1.657
1.672
1.667
1.662
1.662
1.672
1.662
1.642
1.642
1.657
1.652
1.637
1.637
1.652
1.662
1.642
1.647
1.667
1.672
1.662
1.652
1.657
1.667
1.647
1.637
1.647
1.662
1.657
1.652
1.657
1.676
1.672
1.652
1.657
1.672
1.667
1.657
1.657
1.667
1.672
1.652
1.652
1.672
1.672
1.662
1.652
1.662
1.672
1.652
1.642
1.657
1.667
1.662
1.652
1.657
1.672
1.667
1.647
1.657
1.676
1.676
1.667
1.662
1.676
1.676
1.657
1.652
1.672
1.676
1.672
1.667
1.676
1.691
1.681
1.672
1.691
1.701
1.701
1.691
1.696
1.711
1.711
1.701
1.711
1.735
1.74
1.735
1.74
1.755
1.764
1.745
1.74
1.755
1.76
1.75
1.74
1.745
1.75
1.73
1.716
1.725
1.73
1.72
1.701
1.701
1.706
1.691
1.667
1.667
1.681
1.676
1.667
1.662
1.676
1.676
1.652
1.652
1.667
1.672
1.662
1.652
1.662
1.676
1.657
1.642
1.647
1.647
1.632
1.613
1.613
1.623
1.623
1.618
1.647
1.711
1.774
1.843
1.926
2.019
2.087
2.116
2.146
2.17
2.151
2.107
2.043
1.984
1.926
1.843
1.774
1.735
1.706
1.667
1.637
1.632
1.642
1.642
1.637
1.657
1.686
1.686
1.676
1.667
1.676
1.672
1.647
1.642
1.662
1.667
1.657
1.652
1.662
1.676
1.662
1.647
1.662
1.676
1.672
1.662
1.667
1.681
1.681
1.662
1.672
1.686
1.681
1.672
1.667
1.676
1.681
1.667
1.667
1.686
1.691
1.686
1.681
1.696
1.701
1.686
1.672
1.686
1.701
1.691
1.681
1.691
1.711
1.701
1.686
1.696
1.716
1.716
1.706
1.701
1.711
1.716
1.696
1.696
1.716
1.725
1.72
1.716
1.725
1.74
1.73
1.72
1.735
1.745
1.74
1.73
1.735
1.75
1.745
1.73
1.74
1.755
1.76
1.75
1.745
1.755
1.76
1.74
1.735
1.75
1.755
1.75
1.74
1.75
1.76
1.745
1.735
1.745
1.755
1.75
1.74
1.74
1.755
1.75
1.735
1.74
1.755
1.75
1.735
1.73
1.745
1.745
1.72
1.72
1.735
1.745
1.735
1.725
1.735
1.745
1.725
1.706
1.716
1.72
1.711
1.696
1.696
1.706
1.701
1.676
1.681
1.696
1.691
1.676
1.672
1.681
1.681
1.657
1.652
1.672
1.672
1.662
1.657
1.662
1.672
1.657
1.642
1.657
1.667
1.662
1.657
1.662
1.676
1.672
1.652
1.657
1.672
1.667
1.657
1.652
1.667
1.676
1.657
1.657
1.681
1.691
1.681
1.676
1.686
1.691
1.676
1.662
1.676
1.686
1.681
1.672
1.676
1.686
1.681
1.662
1.667
1.681
1.676
1.667
1.667
1.681
1.686
1.667
1.667
1.681
1.686
1.672
1.662
1.672
1.681
1.667
1.652
1.667
1.676
1.676
1.667
1.672
1.686
1.676
1.652
1.662
1.672
1.672
1.657
1.652
1.667
1.672
1.652
1.652
1.672
1.676
1.667
1.657
1.667
1.676
1.657
1.642
1.657
1.667
1.667
1.657
1.662
1.676
1.672
1.652
1.657
1.672
1.667
1.652
1.652
1.662
1.667
1.652
1.652
1.667
1.676
1.672
1.662
1.667
1.681
1.662
1.642
1.652
1.662
1.657
1.647
1.652
1.667
1.662
1.642
1.652
1.672
1.667
1.657
1.652
1.662
1.667
1.642
1.637
1.657
1.662
1.657
1.652
1.667
1.676
1.662
1.647
1.657
1.667
1.657
1.647
1.647
1.667
1.667
1.652
1.667
1.686
1.691
1.686
1.681
1.696
1.701
1.676
1.676
1.701
1.711
1.711
1.716
1.73
1.75
1.74
1.73
1.74
1.75
1.745
1.735
1.735
1.75
1.745
1.725
1.73
1.74
1.725
1.706
1.691
1.691
1.686
1.662
1.647
1.662
1.667
1.657
1.647
1.657
1.667
1.647
1.637
1.647
1.662
1.652
1.647
1.647
1.662
1.657
1.642
1.647
1.662
1.652
1.637
1.628
1.632
1.628
1.603
1.598
1.628
1.652
1.686
1.735
1.823
1.911
1.975
2.028
2.092
2.131
2.131
2.107
2.067
2.028
1.95
1.862
1.804
1.764
1.716
1.667
1.637
1.632
1.628
1.608
1.618
1.647
1.662
1.662
1.657
1.667
1.672
1.657
1.637
1.647
1.657
1.652
1.637
1.642
1.652
1.647
1.628
1.632
1.652
1.652
1.647
1.647
1.662
1.667
1.647
1.642
1.657
1.662
1.652
1.647
1.652
1.667
1.657
1.647
1.662
1.672
1.667
1.662
1.667
1.681
1.681
1.667
1.672
1.686
1.686
1.667
1.662
1.672
1.676
1.657
1.662
1.681
1.691
1.686
1.681
1.691
1.706
1.691
1.676
1.696
1.711
1.706
1.701
1.706
1.72
1.72
1.701
1.706
1.72
1.725
1.716
1.711
1.725
1.73
1.716
1.716
1.74
1.75
1.745
1.74
1.75
1.76
1.74
1.725
1.735
1.745
1.735
1.725
1.73
1.745
1.74
1.72
1.725
1.745
1.745
1.735
1.725
1.74
1.745
1.72
1.716
1.73
1.74
1.73
1.725
1.735
1.745
1.725
1.711
1.725
1.735
1.725
1.716
1.711
1.725
1.716
1.691
1.696
1.706
1.701
1.686
1.681
1.691
1.691
1.672
1.667
1.676
1.681
1.667
1.652
1.657
1.662
1.647
1.628
1.642
1.652
1.642
1.632
1.632
1.647
1.647
1.628
1.632
1.647
1.642
1.632
1.628
1.642
1.647
1.628
1.628
1.647
1.652
1.642
1.637
1.642
1.657
1.642
1.628
1.642
1.657
1.652
1.642
1.647
1.657
1.652
1.632
1.637
1.657
1.657
1.652
1.652
1.662
1.667
1.642
1.637
1.652
1.657
1.647
1.642
1.652
1.662
1.652
1.637
1.652
1.662
1.657
1.647
1.647
1.662
1.657
1.637
1.642
1.657
1.652
1.647
1.642
1.652
1.657
1.632
1.628
1.647
1.652
1.647
1.642
1.647
1.662
1.647
1.632
1.642
1.647
1.637
1.628
1.632
1.652
1.647
1.628
1.632
1.652
1.647
1.637
1.632
1.647
1.652
1.632
1.628
1.647
1.657
1.647
1.637
1.647
1.657
1.642
1.628
1.642
1.657
1.652
1.647
1.647
1.662
1.657
1.632
1.637
1.652
1.652
1.642
1.637
1.647
1.657
1.637
1.637
1.652
1.657
1.647
1.637
1.642
1.657
1.642
1.628
1.642
1.652
1.647
1.637
1.642
1.657
1.657
1.637
1.642
1.662
1.662
1.647
1.642
1.652
1.657
1.632
1.628
1.642
1.652
1.647
1.642
1.657
1.672
1.667
1.657
1.672
1.686
1.681
1.676
1.681
1.696
1.696
1.681
1.696
1.72
1.725
1.725
1.725
1.74
1.745
1.72
1.716
1.725
1.725
1.716
1.701
1.706
1.716
1.701
1.681
1.686
1.696
1.691
1.676
1.672
1.681
1.672
1.642
1.642
1.652
1.647
1.637
1.632
1.647
1.657
1.637
1.637
1.652
1.657
1.647
1.637
1.637
1.642
1.618
1.593
1.588
1.593
1.584
1.574
1.579
1.618
1.652
1.696
1.784
1.906
2.014
2.102
2.18
2.243
2.278
2.253
2.214
2.175
2.107
2.014
1.921
1.848
1.794
1.72
1.667
1.642
1.637
1.623
1.608
1.618
1.642
1.647
1.632
1.642
1.652
1.647
1.628
1.613
1.623
1.628
1.608
1.603
1.623
1.628
1.623
1.618
1.623
1.637
1.628
1.618
1.632
1.647
1.642
1.632
1.632
1.647
1.642
1.628
1.632
1.652
1.652
1.647
1.642
1.657
1.662
1.642
1.637
1.647
1.657
1.647
1.637
1.647
1.662
1.647
1.637
1.652
1.667
1.667
1.657
1.662
1.676
1.672
1.657
1.662
1.681
1.681
1.676
1.676
1.691
1.696
1.681
1.672
1.691
1.701
1.696
1.691
1.701
1.716
1.706
1.691
1.706
1.72
1.716
1.701
1.701
1.72
1.72
1.701
1.711
1.73
1.73
1.725
1.716
1.73
1.735
1.711
1.706
1.725
1.73
1.725
1.716
1.72
1.735
1.72
1.706
1.72
1.73
1.725
1.716
1.716
1.73
1.725
1.701
1.706
1.72
1.716
1.706
1.701
1.711
1.716
1.696
1.686
1.701
1.711
1.701
1.691
1.696
1.706
1.696
1.676
1.686
1.696
1.686
1.667
1.662
1.672
1.662
1.637
1.637
1.652
1.652
1.642
1.637
1.647
1.647
1.628
1.618
1.632
1.637
1.632
1.623
1.632
1.642
1.632
1.618
1.632
1.642
1.637
1.628
1.628
1.642
1.637
1.618
1.623
1.642
1.642
1.632
1.628
1.637
1.647
1.632
1.628
1.642
1.652
1.642
1.637
1.642
1.657
1.647
1.632
1.642
1.657
1.652
1.642
1.642
1.657
1.657
1.637
1.642
1.662
1.667
1.657
1.652
1.662
1.667
1.642
1.637
1.647
1.652
1.642
1.632
1.642
1.657
1.642
1.628
1.642
1.652
1.647
1.637
1.637
1.652
1.652
1.628
1.632
1.652
1.652
1.647
1.642
1.652
1.657
1.637
1.632
1.647
1.652
1.642
1.632
1.637
1.657
1.642
1.623
1.637
1.647
1.642
1.632
1.637
1.647
1.642
1.623
1.623
1.642
1.647
1.637
1.632
1.647
1.657
1.637
1.632
1.647
1.652
1.642
1.632
1.637
1.647
1.637
1.623
1.632
1.647
1.647
1.637
1.642
1.657
1.662
1.637
1.637
1.652
1.652
1.637
1.632
1.637
1.647
1.632
1.628
1.647
1.657
1.652
1.642
1.652
1.662
1.647
1.632
1.642
1.652
1.647
1.642
1.642
1.662
1.667
1.652
1.657
1.676
1.681
1.672
1.667
1.681
1.691
1.672
1.672
1.691
1.711
1.711
1.711
1.725
1.74
1.73
1.716
1.72
1.735
1.73
1.716
1.716
1.725
1.72
1.696
1.691
1.701
1.691
1.676
1.662
1.667
1.672
1.642
1.632
1.647
1.657
1.647
1.637
1.642
1.657
1.647
1.632
1.642
1.652
1.642
1.632
1.632
1.642
1.637
1.608
1.598
1.603
1.593
1.574
1.564
1.584
1.618
1.642
1.706
1.813
1.931
2.038
2.136
2.219
2.283
2.292
2.268
2.243
2.195
2.116
2.019
1.931
1.862
1.789
1.711
1.667
1.647
1.628
1.608
1.603
1.623
1.647
1.637
1.642
1.657
1.662
1.647
1.628
1.632
1.642
1.628
1.613
1.628
1.637
1.632
1.623
1.623
1.642
1.642
1.623
1.628
1.642
1.642
1.632
1.628
1.637
1.647
1.632
1.628
1.647
1.657
1.652
1.647
1.652
1.667
1.652
1.637
1.647
1.662
1.662
1.647
1.647
1.662
1.662
1.647
1.652
1.667
1.672
1.662
1.657
1.667
1.676
1.657
1.652
1.672
1.686
1.681
1.676
1.686
1.701
1.691
1.676
1.686
1.701
1.696
1.686
1.691
1.706
1.706
1.686
1.696
1.716
1.72
1.711
1.706
1.72
1.73
1.716
1.711
1.725
1.735
1.73
1.725
1.735
1.75
1.74
1.72
1.73
1.745
1.74
1.725
1.725
1.735
1.73
1.711
1.711
1.73
1.73
1.72
1.716
1.725
1.735
1.716
1.706
1.72
1.725
1.716
1.706
1.711
1.72
1.716
1.701
1.711
1.725
1.72
1.711
1.701
1.711
1.701
1.676
1.676
1.691
1.691
1.676
1.672
1.681
1.681
1.657
1.642
1.652
1.652
1.642
1.632
1.637
1.647
1.637
1.628
1.637
1.652
1.647
1.632
1.632
1.642
1.642
1.618
1.623
1.637
1.642
1.637
1.632
1.647
1.652
1.632
1.628
1.642
1.652
1.642
1.632
1.637
1.647
1.637
1.623
1.632
1.652
1.647
1.642
1.642
1.657
1.657
1.637
1.642
1.657
1.657
1.642
1.637
1.647
1.657
1.642
1.637
1.652
1.662
1.657
1.647
1.652
1.667
1.652
1.632
1.642
1.657
1.652
1.642
1.642
1.662
1.657
1.637
1.642
1.657
1.657
1.647
1.642
1.652
1.662
1.637
1.632
1.642
1.657
1.647
1.642
1.642
1.662
1.647
1.632
1.642
1.652
1.647
1.637
1.637
1.657
1.657
1.637
1.637
1.652
1.652
1.642
1.632
1.637
1.647
1.628
1.623
1.642
1.652
1.652
1.642
1.652
1.667
1.652
1.637
1.642
1.657
1.652
1.642
1.637
1.652
1.652
1.632
1.637
1.657
1.662
1.657
1.652
1.657
1.662
1.642
1.632
1.642
1.647
1.642
1.632
1.642
1.657
1.652
1.637
1.647
1.662
1.657
1.647
1.642
1.657
1.657
1.637
1.642
1.662
1.672
1.667
1.667
1.681
1.691
1.672
1.667
1.686
1.696
1.691
1.686
1.696
1.716
1.711
1.701
1.72
1.74
1.74
1.73
1.725
1.735
1.735
1.711
1.711
1.725
1.725
1.716
1.706
1.716
1.72
1.696
1.681
1.686
1.686
1.672
1.657
1.662
1.672
1.662
1.642
1.652
1.662
1.657
1.647
1.652
1.662
1.662
1.637
1.642
1.657
1.657
1.642
1.628
1.628
1.623
1.593
1.574
1.579
1.588
1.593
1.618
1.672
1.76
1.848
1.94
2.058
2.165
2.234
2.268
2.278
2.278
2.239
2.155
2.077
2.009
1.926
1.838
1.76
1.716
1.676
1.628
1.598
1.608
1.623
1.632
1.637
1.657
1.681
1.672
1.652
1.652
1.662
1.647
1.637
1.632
1.647
1.647
1.623
1.628
1.647
1.647
1.642
1.642
1.657
1.662
1.647
1.637
1.652
1.662
1.657
1.647
1.652
1.662
1.652
1.637
1.642
1.657
1.657
1.647
1.652
1.667
1.672
1.652
1.647
1.667
1.667
1.662
1.662
1.676
1.691
1.676
1.672
1.686
1.696
1.691
1.676
1.681
1.696
1.691
1.676
1.691
1.711
1.711
1.706
1.706
1.72
1.72
1.701
1.701
1.72
1.725
1.72
1.716
1.73
1.745
1.725
1.72
1.735
1.745
1.74
1.725
1.735
1.75
1.74
1.725
1.735
1.755
1.75
1.745
1.745
1.76
1.764
1.74
1.745
1.764
1.764
1.755
1.74
1.745
1.75
1.73
1.72
1.74
1.75
1.745
1.735
1.74
1.755
1.745
1.725
1.73
1.745
1.74
1.725
1.725
1.74
1.735
1.711
1.711
1.725
1.72
1.711
1.701
1.711
1.72
1.701
1.691
1.706
1.711
1.701
1.681
1.681
1.686
1.672
1.647
1.652
1.662
1.662
1.647
1.647
1.657
1.657
1.637
1.637
1.657
1.662
1.652
1.647
1.652
1.662
1.642
1.632
1.647
1.652
1.642
1.637
1.642
1.662
1.652
1.637
1.652
1.667
1.667
1.657
1.657
1.672
1.672
1.652
1.652
1.667
1.672
1.662
1.652
1.667
1.676
1.657
1.647
1.662
1.672
1.667
1.657
1.662
1.676
1.667
1.652
1.657
1.672
1.672
1.662
1.662
1.676
1.681
1.662
1.662
1.672
1.676
1.667
1.662
1.672
1.676
1.662
1.652
1.667
1.672
1.662
1.652
1.652
1.662
1.652
1.632
1.642
1.662
1.662
1.652
1.657
1.672
1.672
1.647
1.642
1.657
1.657
1.642
1.637
1.647
1.662
1.652
1.647
1.662
1.676
1.667
1.657
1.662
1.676
1.667
1.642
1.652
1.672
1.667
1.657
1.652
1.662
1.662
1.642
1.642
1.657
1.657
1.652
1.642
1.652
1.667
1.647
1.642
1.667
1.681
1.681
1.681
1.686
1.706
1.696
1.676
1.686
1.701
1.701
1.691
1.696
1.716
1.73
1.716
1.72
1.745
1.75
1.74
1.73
1.74
1.745
1.725
1.711
1.72
1.725
1.716
1.706
1.706
1.711
1.696
1.672
1.676
1.686
1.676
1.662
1.657
1.672
1.672
1.652
1.652
1.667
1.672
1.662
1.647
1.657
1.667
1.647
1.637
1.652
1.667
1.662
1.652
1.657
1.662
1.642
1.613
1.613
1.623
1.628
1.632
1.667
1.735
1.808
1.862
1.935
2.023
2.077
2.107
2.116
2.121
2.107
2.043
1.97
1.916
1.857
1.789
1.72
1.676
1.657
1.628
1.603
1.613
1.637
1.652
1.652
1.662
1.681
1.681
1.657
1.652
1.667
1.672
1.662
1.652
1.657
1.667
1.647
1.637
1.652
1.667
1.662
1.652
1.657
1.672
1.662
1.647
1.652
1.667
1.667
1.657
1.657
1.672
1.681
1.667
1.667
1.681
1.686
1.676
1.672
1.681
1.691
1.672
1.662
1.672
1.686
1.681
1.672
1.681
1.696
1.691
1.676
1.691
1.706
1.711
1.706
1.706
1.72
1.725
1.706
1.706
1.72
1.725
1.716
1.711
1.72
1.73
1.716
1.706
1.725
1.735
1.735
1.725
1.73
1.75
1.745
1.73
1.74
1.764
1.76
1.75
1.75
1.76
1.764
1.74
1.735
1.755
1.76
1.755
1.75
1.764
1.779
1.764
1.75
1.764
1.774
1.764
1.755
1.755
1.769
1.764
1.745
1.755
1.774
1.769
1.76
1.755
1.764
1.76
1.735
1.73
1.745
1.75
1.74
1.735
1.745
1.75
1.73
1.716
1.73
1.735
1.725
1.716
1.716
1.725
1.716
1.691
1.691
1.701
1.691
1.676
1.667
1.672
1.676
1.652
1.647
1.667
1.667
1.657
1.647
1.657
1.662
1.647
1.632
1.647
1.657
1.657
1.647
1.652
1.672
1.662
1.642
1.647
1.662
1.657
1.642
1.637
1.652
1.652
1.637
1.637
1.652
1.657
1.652
1.647
1.662
1.676
1.662
1.652
1.667
1.676
1.667
1.657
1.657
1.667
1.662
1.642
1.652
1.676
1.676
1.667
1.667
1.681
1.686
1.662
1.662
1.676
1.686
1.676
1.667
1.672
1.681
1.662
1.642
1.652
1.662
1.657
1.652
1.657
1.676
1.667
1.647
1.652
1.667
1.667
1.657
1.652
1.667
1.672
1.652
1.652
1.672
1.676
1.667
1.657
1.662
1.672
1.657
1.642
1.657
1.667
1.662
1.657
1.662
1.681
1.681
1.667
1.676
1.696
1.691
1.681
1.686
1.701
1.711
1.701
1.706
1.725
1.735
1.725
1.72
1.73
1.735
1.72
1.706
1.716
1.725
1.72
1.706
1.706
1.716
1.706
1.681
1.681
1.691
1.681
1.667
1.657
1.662
1.662
1.637
1.632
1.647
1.657
1.652
1.642
1.652
1.662
1.647
1.637
1.647
1.657
1.647
1.637
1.637
1.652
1.642
1.618
1.623
1.637
1.632
1.623
1.618
1.637
1.652
1.657
1.696
1.764
1.833
1.887
1.931
1.979
2.019
2.019
2.004
1.994
1.97
1.911
1.848
1.794
1.76
1.706
1.647
1.623
1.618
1.608
1.603
1.613
1.637
1.652
1.642
1.642
1.657
1.657
1.647
1.632
1.642
1.652
1.637
1.628
1.642
1.652
1.647
1.637
1.642
1.652
1.647
1.628
1.632
1.652
1.657
1.647
1.647
1.662
1.667
1.642
1.642
1.657
1.662
1.652
1.647
1.657
1.672
1.657
1.647
1.662
1.676
1.672
1.662
1.667
1.681
1.681
1.662
1.672
1.691
1.691
1.681
1.676
1.691
1.701
1.681
1.681
1.701
1.706
1.701
1.691
1.701
1.716
1.701
1.691
1.701
1.716
1.711
1.706
1.706
1.72
1.72
1.706
1.716
1.74
1.74
1.735
1.73
1.75
1.75
1.725
1.72
1.735
1.74
1.735
1.73
1.74
1.755
1.745
1.74
1.755
1.764
1.76
1.75
1.75
1.764
1.76
1.735
1.74
1.75
1.75
1.735
1.73
1.74
1.745
1.725
1.72
1.74
1.745
1.74
1.73
1.735
1.74
1.72
1.701
1.706
1.716
1.701
1.691
1.691
1.701
1.691
1.672
1.667
1.681
1.676
1.657
1.647
1.657
1.657
1.637
1.632
1.647
1.652
1.642
1.637
1.642
1.652
1.637
1.623
1.637
1.647
1.642
1.628
1.628
1.642
1.637
1.613
1.618
1.632
1.632
1.628
1.628
1.637
1.647
1.623
1.623
1.637
1.642
1.632
1.628
1.637
1.652
1.642
1.632
1.647
1.662
1.657
1.647
1.647
1.657
1.652
1.628
1.632
1.647
1.647
1.637
1.637
1.647
1.662
1.642
1.637
1.657
1.662
1.647
1.637
1.647
1.662
1.647
1.632
1.647
1.657
1.652
1.642
1.647
1.662
1.652
1.632
1.632
1.647
1.647
1.632
1.628
1.642
1.652
1.637
1.637
1.652
1.662
1.652
1.642
1.647
1.657
1.637
1.623
1.632
1.642
1.637
1.632
1.632
1.652
1.647
1.628
1.637
1.652
1.657
1.647
1.642
1.657
1.667
1.647
1.642
1.662
1.667
1.662
1.652
1.667
1.681
1.676
1.672
1.691
1.706
1.711
1.706
1.711
1.72
1.716
1.691
1.696
1.711
1.706
1.696
1.686
1.696
1.696
1.672
1.662
1.672
1.676
1.662
1.647
1.647
1.657
1.637
1.623
1.632
1.642
1.637
1.632
1.632
1.647
1.642
1.618
1.623
1.632
1.632
1.623
1.613
1.628
1.628
1.608
1.598
1.608
1.608
1.588
1.574
1.579
1.593
1.593
1.603
1.662
1.745
1.828
1.911
2.004
2.097
2.155
2.175
2.19
2.185
2.146
2.077
2.004
1.935
1.867
1.774
1.706
1.672
1.637
1.608
1.584
1.588
1.613
1.608
1.608
1.628
1.647
1.642
1.628
1.623
1.632
1.628
1.603
1.608
1.628
1.628
1.618
1.613
1.628
1.628
1.608
1.608
1.623
1.632
1.628
1.623
1.632
1.642
1.632
1.618
1.628
1.642
1.637
1.628
1.628
1.642
1.637
1.618
1.628
1.647
1.647
1.637
1.632
1.647
1.652
1.637
1.632
1.652
1.662
1.657
1.647
1.657
1.667
1.652
1.637
1.657
1.672
1.672
1.662
1.667
1.681
1.681
1.662
1.667
1.681
1.681
1.676
1.676
1.696
1.706
1.691
1.686
1.701
1.706
1.696
1.691
1.701
1.716
1.706
1.696
1.716
1.73
1.725
1.72
1.725
1.74
1.74
1.72
1.73
1.745
1.75
1.74
1.73
1.74
1.745
1.725
1.716
1.735
1.74
1.73
1.716
1.72
1.735
1.716
1.701
1.711
1.72
1.72
1.711
1.716
1.73
1.725
1.701
1.701
1.711
1.701
1.686
1.676
1.686
1.691
1.667
1.662
1.672
1.681
1.667
1.657
1.662
1.672
1.652
1.637
1.642
1.647
1.642
1.628
1.623
1.637
1.632
1.608
1.613
1.628
1.628
1.618
1.613
1.623
1.632
1.613
1.608
1.623
1.628
1.623
1.608
1.618
1.632
1.628
1.613
1.628
1.642
1.637
1.628
1.623
1.637
1.628
1.603
1.608
1.628
1.628
1.623
1.618
1.637
1.647
1.628
1.623
1.637
1.642
1.637
1.628
1.632
1.642
1.628
1.618
1.628
1.642
1.642
1.632
1.637
1.657
1.657
1.642
1.642
1.657
1.657
1.647
1.637
1.642
1.642
1.623
1.618
1.637
1.647
1.642
1.637
1.642
1.657
1.642
1.623
1.632
1.642
1.637
1.623
1.623
1.642
1.642
1.623
1.632
1.647
1.652
1.642
1.637
1.647
1.652
1.632
1.623
1.637
1.647
1.637
1.632
1.637
1.647
1.632
1.618
1.628
1.642
1.637
1.628
1.628
1.642
1.642
1.618
1.623
1.637
1.642
1.637
1.632
1.652
1.662
1.647
1.642
1.662
1.672
1.662
1.647
1.652
1.662
1.652
1.642
1.657
1.681
1.686
1.686
1.696
1.72
1.72
1.696
1.696
1.711
1.706
1.696
1.686
1.696
1.701
1.686
1.676
1.696
1.701
1.686
1.672
1.672
1.681
1.667
1.642
1.647
1.652
1.642
1.628
1.628
1.637
1.632
1.613
1.613
1.628
1.632
1.623
1.618
1.632
1.642
1.618
1.608
1.618
1.618
1.598
1.579
1.574
1.579
1.564
1.554
1.584
1.632
1.681
1.75
1.848
1.97
2.072
2.146
2.209
2.263
2.273
2.248
2.195
2.141
2.072
1.965
1.872
1.808
1.75
1.691
1.642
1.618
1.613
1.598
1.584
1.608
1.637
1.642
1.642
1.637
1.642
1.632
1.603
1.598
1.618
1.618
1.613
1.608
1.618
1.628
1.608
1.598
1.618
1.628
1.618
1.608
1.613
1.628
1.618
1.603
1.618
1.632
1.632
1.623
1.623
1.637
1.637
1.618
1.623
1.642
1.647
1.637
1.632
1.647
1.652
1.637
1.628
1.642
1.652
1.652
1.642
1.652
1.667
1.657
1.637
1.647
1.662
1.657
1.647
1.647
1.667
1.672
1.657
1.662
1.681
1.686
1.676
1.672
1.686
1.691
1.672
1.667
1.686
1.701
1.696
1.691
1.701
1.716
1.706
1.691
1.701
1.72
1.72
1.711
1.716
1.73
1.725
1.711
1.716
1.73
1.73
1.72
1.72
1.73
1.74
1.72
1.716
1.73
1.74
1.735
1.725
1.73
1.74
1.725
1.711
1.72
1.73
1.725
1.716
1.711
1.725
1.725
1.701
1.701
1.716
1.716
1.701
1.691
1.696
1.706
1.681
1.672
1.681
1.686
1.676
1.662
1.662
1.672
1.657
1.637
1.642
1.652
1.647
1.632
1.632
1.642
1.642
1.613
1.613
1.628
1.628
1.618
1.618
1.628
1.632
1.613
1.603
1.613
1.623
1.618
1.613
1.618
1.632
1.623
1.608
1.618
1.637
1.632
1.618
1.618
1.628
1.623
1.603
1.603
1.618
1.623
1.623
1.618
1.632
1.642
1.628
1.623
1.637
1.647
1.637
1.628
1.632
1.642
1.632
1.618
1.628
1.642
1.637
1.628
1.628
1.642
1.642
1.623
1.623
1.642
1.642
1.632
1.628
1.637
1.647
1.632
1.623
1.637
1.647
1.637
1.628
1.632
1.647
1.632
1.618
1.628
1.642
1.642
1.637
1.642
1.652
1.657
1.632
1.628
1.642
1.647
1.637
1.628
1.637
1.647
1.632
1.628
1.642
1.652
1.642
1.632
1.637
1.647
1.637
1.618
1.623
1.637
1.637
1.628
1.628
1.647
1.647
1.632
1.632
1.652
1.652
1.642
1.632
1.642
1.647
1.628
1.618
1.632
1.642
1.637
1.632
1.637
1.652
1.637
1.623
1.632
1.652
1.647
1.637
1.637
1.647
1.647
1.628
1.628
1.647
1.647
1.637
1.628
1.637
1.647
1.632
1.628
1.642
1.657
1.647
1.642
1.652
1.667
1.657
1.637
1.642
1.662
1.662
1.652
1.652
1.667
1.672
1.652
1.652
1.667
1.672
1.667
1.667
1.691
1.706
1.701
1.696
1.716
1.73
1.725
1.716
1.716
1.725
1.711
1.686
1.696
1.706
1.706
1.696
1.691
1.701
1.701
1.672
1.672
1.681
1.681
1.662
1.652
1.657
1.662
1.642
1.632
1.642
1.652
1.642
1.637
1.637
1.652
1.642
1.623
1.628
1.642
1.637
1.623
1.613
1.623
1.613
1.584
1.574
1.584
1.579
1.574
1.588
1.632
1.706
1.769
1.862
1.989
2.111
2.195
2.248
2.287
2.307
2.273
2.204
2.141
2.077
1.984
1.896
1.823
1.774
1.72
1.657
1.628
1.623
1.618
1.613
1.618
1.637
1.657
1.647
1.637
1.647
1.652
1.632
1.623
1.623
1.637
1.628
1.613
1.618
1.628
1.623
1.613
1.613
1.628
1.632
1.613
1.613
1.637
1.642
1.637
1.628
1.637
1.647
1.628
1.618
1.632
1.642
1.637
1.628
1.637
1.652
1.647
1.632
1.642
1.657
1.657
1.652
1.652
1.672
1.676
1.652
1.652
1.662
1.667
1.657
1.652
1.662
1.672
1.662
1.652
1.672
1.686
1.676
1.672
1.676
1.691
1.681
1.667
1.676
1.691
1.691
1.686
1.681
1.696
1.701
1.686
1.686
1.706
1.716
1.711
1.706
1.72
1.73
1.716
1.706
1.72
1.73
1.73
1.72
1.73
1.745
1.735
1.72
1.725
1.735
1.73
1.72
1.72
1.735
1.74
1.72
1.72
1.735
1.74
1.73
1.72
1.73
1.735
1.72
1.711
1.725
1.735
1.73
1.72
1.72
1.725
1.716
1.691
1.696
1.706
1.701
1.686
1.686
1.696
1.696
1.672
1.667
1.676
1.676
1.662
1.652
1.652
1.662
1.642
1.632
1.642
1.652
1.642
1.628
1.628
1.637
1.628
1.613
1.618
1.637
1.637
1.628
1.628
1.637
1.642
1.618
1.618
1.632
1.637
1.632
1.628
1.642
1.652
1.632
1.623
1.632
1.637
1.632
1.623
1.623
1.637
1.628
1.613
1.623
1.637
1.637
1.632
1.632
1.647
1.652
1.628
1.628
1.642
1.652
1.642
1.632
1.642
1.652
1.637
1.623
1.637
1.647
1.642
1.632
1.637
1.647
1.642
1.632
1.642
1.657
1.657
1.642
1.637
1.652
1.652
1.632
1.628
1.642
1.647
1.642
1.632
1.642
1.657
1.642
1.628
1.642
1.652
1.642
1.632
1.637
1.652
1.642
1.628
1.632
1.647
1.642
1.637
1.632
1.647
1.652
1.632
1.628
1.642
1.652
1.642
1.632
1.642
1.652
1.637
1.628
1.637
1.647
1.637
1.628
1.628
1.642
1.632
1.623
1.628
1.647
1.647
1.642
1.637
1.647
1.647
1.623
1.623
1.637
1.642
1.637
1.632
1.647
1.657
1.647
1.637
1.652
1.662
1.652
1.642
1.642
1.652
1.642
1.628
1.632
1.652
1.647
1.637
1.632
1.642
1.642
1.623
1.618
1.637
1.642
1.637
1.632
1.642
1.657
1.637
1.628
1.642
1.652
1.647
1.637
1.642
1.662
1.657
1.637
1.642
1.652
1.652
1.642
1.637
1.652
1.652
1.637
1.632
1.647
1.652
1.642
1.632
1.642
1.657
1.637
1.628
1.642
1.657
1.652
1.642
1.642
1.652
1.647
1.628
1.632
1.652
1.657
1.652
1.652
1.667
1.672
1.657
1.657
1.676
1.681
1.676
1.672
1.686
1.701
1.686
1.681
1.701
1.716
1.716
1.711
1.72
1.74
1.73
1.711
1.711
1.72
1.72
1.706
1.701
1.711
1.711
1.686
1.681
1.696
1.691
1.676
1.667
1.667
1.672
1.652
1.637
1.642
1.657
1.652
1.642
1.642
1.657
1.652
1.632
1.637
1.652
1.652
1.642
1.637
1.647
1.652
1.632
1.618
1.628
1.623
1.593
1.574
1.564
1.569
1.559
1.564
1.613
1.686
1.769
1.872
1.994
2.121
2.209
2.258
2.302
2.322
2.297
2.239
2.165
2.097
2.014
1.911
1.828
1.779
1.725
1.676
1.637
1.623
1.628
1.613
1.608
1.632
1.657
1.657
1.642
1.637
1.642
1.632
1.608
1.613
1.632
1.632
1.623
1.623
1.632
1.632
1.613
1.608
1.628
1.632
1.628
1.618
1.628
1.642
1.628
1.618
1.637
1.647
1.642
1.637
1.637
1.657
1.652
1.632
1.637
1.652
1.652
1.637
1.637
1.652
1.657
1.637
1.632
1.652
1.657
1.652
1.647
1.657
1.672
1.662
1.652
1.662
1.676
1.672
1.662
1.667
1.681
1.681
1.662
1.672
1.691
1.696
1.686
1.686
1.706
1.716
1.691
1.686
1.706
1.711
1.706
1.701
1.711
1.725
1.711
1.701
1.716
1.725
1.725
1.72
1.72
1.74
1.735
1.716
1.72
1.74
1.74
1.725
1.72
1.735
1.74
1.72
1.72
1.74
1.745
1.74
1.73
1.74
1.75
1.735
1.716
1.73
1.74
1.735
1.725
1.725
1.735
1.73
1.716
1.72
1.735
1.735
1.72
1.716
1.725
1.73
1.706
1.696
1.706
1.706
1.696
1.681
1.686
1.691
1.676
1.652
1.662
1.672
1.662
1.652
1.647
1.657
1.657
1.632
1.642
1.652
1.652
1.637
1.632
1.642
1.642
1.618
1.618
1.632
1.642
1.637
1.632
1.637
1.647
1.632
1.618
1.628
1.637
1.632
1.623
1.628
1.642
1.642
1.623
1.632
1.647
1.647
1.637
1.632
1.647
1.652
1.632
1.628
1.637
1.652
1.642
1.632
1.642
1.657
1.642
1.632
1.642
1.652
1.647
1.642
1.642
1.652
1.652
1.632
1.637
1.657
1.662
1.652
1.647
1.662
1.667
1.647
1.642
1.652
1.657
1.647
1.637
1.642
1.652
1.642
1.628
1.637
1.652
1.647
1.637
1.637
1.652
1.647
1.628
1.632
1.652
1.652
1.642
1.637
1.647
1.652
1.628
1.623
1.637
1.647
1.642
1.637
1.642
1.662
1.647
1.632
1.642
1.652
1.647
1.637
1.642
1.657
1.657
1.632
1.637
1.652
1.647
1.637
1.632
1.642
1.647
1.632
1.628
1.642
1.652
1.647
1.637
1.642
1.657
1.647
1.632
1.642
1.657
1.657
1.647
1.647
1.657
1.652
1.632
1.632
1.647
1.647
1.637
1.632
1.647
1.657
1.637
1.637
1.652
1.662
1.652
1.642
1.652
1.662
1.652
1.632
1.642
1.657
1.652
1.637
1.642
1.657
1.657
1.637
1.642
1.662
1.667
1.657
1.652
1.667
1.672
1.652
1.642
1.657
1.662
1.657
1.647
1.657
1.667
1.657
1.642
1.657
1.672
1.667
1.657
1.657
1.672
1.672
1.647
1.652
1.667
1.672
1.662
1.652
1.667
1.672
1.652
1.647
1.662
1.672
1.667
1.662
1.667
1.681
1.667
1.652
1.667
1.681
1.676
1.672
1.672
1.691
1.696
1.676
1.681
1.701
1.701
1.696
1.696
1.711
1.725
1.716
1.716
1.74
1.755
1.755
1.745
1.755
1.76
1.745
1.72
1.725
1.735
1.73
1.716
1.711
1.725
1.72
1.696
1.696
1.711
1.706
1.696
1.681
1.691
1.691
1.667
1.652
1.662
1.667
1.662
1.652
1.662
1.676
1.667
1.652
1.662
1.676
1.676
1.667
1.667
1.676
1.667
1.642
1.632
1.637
1.628
1.603
1.584
1.584
1.588
1.579
1.598
1.662
1.74
1.833
1.931
2.048
2.16
2.224
2.263
2.297
2.307
2.268
2.204
2.126
2.058
1.97
1.862
1.789
1.745
1.696
1.652
1.623
1.628
1.637
1.632
1.637
1.667
1.686
1.681
1.667
1.662
1.667
1.647
1.628
1.637
1.652
1.642
1.632
1.632
1.652
1.652
1.632
1.637
1.657
1.662
1.652
1.647
1.657
1.667
1.647
1.642
1.662
1.672
1.667
1.657
1.667
1.676
1.667
1.647
1.657
1.672
1.667
1.662
1.662
1.676
1.681
1.662
1.672
1.691
1.696
1.686
1.681
1.691
1.701
1.681
1.676
1.691
1.701
1.696
1.686
1.696
1.711
1.701
1.686
1.696
1.716
1.716
1.711
1.716
1.73
1.735
1.716
1.72
1.735
1.74
1.73
1.73
1.74
1.75
1.735
1.725
1.74
1.755
1.75
1.745
1.75
1.769
1.76
1.745
1.755
1.769
1.769
1.76
1.76
1.769
1.769
1.75
1.75
1.769
1.769
1.76
1.755
1.764
1.769
1.755
1.745
1.755
1.764
1.76
1.745
1.755
1.764
1.75
1.73
1.74
1.75
1.745
1.73
1.725
1.735
1.73
1.711
1.711
1.725
1.725
1.716
1.706
1.711
1.711
1.686
1.672
1.676
1.681
1.672
1.662
1.662
1.676
1.667
1.652
1.662
1.672
1.672
1.657
1.652
1.662
1.662
1.632
1.632
1.647
1.652
1.642
1.637
1.647
1.657
1.642
1.632
1.647
1.657
1.652
1.642
1.652
1.667
1.657
1.642
1.647
1.662
1.657
1.652
1.652
1.667
1.672
1.652
1.652
1.672
1.676
1.667
1.657
1.667
1.676
1.657
1.647
1.667
1.676
1.667
1.662
1.667
1.681
1.676
1.662
1.676
1.691
1.686
1.672
1.667
1.676
1.676
1.652
1.652
1.672
1.676
1.667
1.662
1.676
1.686
1.667
1.657
1.672
1.676
1.672
1.662
1.667
1.681
1.672
1.652
1.662
1.676
1.672
1.662
1.657
1.672
1.667
1.647
1.647
1.662
1.667
1.662
1.657
1.667
1.676
1.662
1.652
1.667
1.676
1.667
1.657
1.662
1.676
1.667
1.647
1.657
1.672
1.672
1.662
1.657
1.672
1.672
1.647
1.647
1.667
1.672
1.662
1.657
1.667
1.681
1.662
1.652
1.662
1.672
1.667
1.657
1.662
1.676
1.667
1.647
1.657
1.672
1.667
1.657
1.657
1.672
1.672
1.652
1.652
1.672
1.676
1.667
1.662
1.672
1.681
1.662
1.647
1.667
1.676
1.667
1.657
1.657
1.672
1.667
1.647
1.657
1.672
1.672
1.662
1.662
1.681
1.681
1.662
1.662
1.681
1.681
1.672
1.662
1.672
1.681
1.662
1.652
1.672
1.681
1.676
1.667
1.672
1.681
1.672
1.657
1.662
1.681
1.681
1.676
1.681
1.701
1.711
1.691
1.691
1.706
1.716
1.711
1.711
1.725
1.74
1.725
1.725
1.74
1.755
1.745
1.735
1.74
1.745
1.73
1.711
1.716
1.735
1.735
1.725
1.725
1.735
1.735
1.706
1.696
1.706
1.701
1.681
1.662
1.667
1.676
1.657
1.647
1.662
1.672
1.672
1.662
1.667
1.676
1.672
1.652
1.657
1.672
1.672
1.657
1.652
1.657
1.657
1.628
1.618
1.628
1.628
1.613
1.608
1.628
1.657
1.672
1.716
1.799
1.891
1.965
2.023
2.087
2.141
2.155
2.136
2.116
2.087
2.023
1.945
1.877
1.823
1.764
1.691
1.652
1.637
1.628
1.618
1.623
1.642
1.667
1.662
1.657
1.667
1.672
1.657
1.642
1.642
1.657
1.652
1.632
1.642
1.662
1.657
1.642
1.637
1.652
1.652
1.637
1.637
1.657
1.667
1.662
1.657
1.667
1.676
1.657
1.647
1.657
1.667
1.662
1.652
1.657
1.672
1.667
1.652
1.662
1.681
1.681
1.672
1.667
1.681
1.686
1.667
1.667
1.686
1.696
1.686
1.681
1.691
1.701
1.686
1.672
1.686
1.696
1.691
1.686
1.691
1.711
1.706
1.691
1.701
1.72
1.72
1.716
1.716
1.73
1.73
1.711
1.711
1.73
1.735
1.73
1.725
1.74
1.75
1.74
1.73
1.745
1.755
1.755
1.745
1.75
1.769
1.764
1.75
1.76
1.774
1.769
1.76
1.75
1.76
1.76
1.74
1.74
1.76
1.769
1.764
1.755
1.76
1.769
1.75
1.735
1.745
1.755
1.745
1.735
1.735
1.75
1.745
1.725
1.73
1.74
1.735
1.725
1.716
1.725
1.725
1.701
1.691
1.701
1.701
1.691
1.681
1.681
1.691
1.672
1.657
1.667
1.672
1.662
1.647
1.647
1.657
1.647
1.632
1.637
1.652
1.647
1.642
1.637
1.647
1.647
1.623
1.618
1.632
1.642
1.637
1.632
1.647
1.662
1.647
1.628
1.637
1.642
1.632
1.623
1.628
1.642
1.642
1.628
1.637
1.657
1.657
1.647
1.642
1.652
1.652
1.632
1.628
1.647
1.652
1.647
1.642
1.652
1.667
1.652
1.642
1.657
1.667
1.662
1.652
1.652
1.667
1.662
1.642
1.647
1.667
1.667
1.657
1.652
1.662
1.667
1.642
1.637
1.652
1.657
1.647
1.642
1.652
1.667
1.652
1.642
1.652
1.662
1.657
1.642
1.642
1.657
1.652
1.632
1.642
1.662
1.657
1.647
1.642
1.652
1.657
1.637
1.632
1.652
1.657
1.647
1.637
1.647
1.657
1.642
1.628
1.642
1.657
1.652
1.642
1.647
1.657
1.652
1.632
1.637
1.652
1.652
1.647
1.642
1.652
1.657
1.632
1.628
1.647
1.657
1.647
1.642
1.647
1.657
1.642
1.628
1.637
1.652
1.647
1.637
1.642
1.662
1.662
1.642
1.642
1.657
1.657
1.647
1.642
1.657
1.662
1.642
1.637
1.652
1.657
1.642
1.632
1.642
1.657
1.642
1.628
1.642
1.657
1.652
1.647
1.647
1.662
1.657
1.632
1.637
1.657
1.657
1.652
1.647
1.662
1.667
1.642
1.642
1.657
1.662
1.657
1.647
1.652
1.667
1.657
1.647
1.667
1.681
1.681
1.672
1.676
1.691
1.686
1.667
1.676
1.696
1.706
1.701
1.711
1.73
1.74
1.725
1.72
1.735
1.735
1.72
1.711
1.711
1.72
1.711
1.696
1.701
1.711
1.706
1.691
1.686
1.691
1.681
1.657
1.662
1.676
1.672
1.657
1.652
1.662
1.662
1.642
1.637
1.652
1.652
1.647
1.637
1.642
1.657
1.642
1.632
1.647
1.662
1.652
1.632
1.623
1.618
1.598
1.564
1.559
1.574
1.593
1.623
1.686
1.784
1.896
1.994
2.097
2.195
2.263
2.292
2.287
2.268
2.234
2.151
2.053
1.979
1.911
1.828
1.755
1.701
1.672
1.637
1.598
1.598
1.623
1.637
1.642
1.647
1.662
1.672
1.642
1.628
1.632
1.632
1.618
1.608
1.618
1.637
1.623
1.613
1.623
1.642
1.637
1.628
1.632
1.642
1.642
1.618
1.623
1.642
1.642
1.637
1.637
1.647
1.652
1.637
1.632
1.647
1.657
1.652
1.642
1.652
1.662
1.647
1.632
1.642
1.657
1.652
1.642
1.642
1.662
1.662
1.642
1.652
1.672
1.676
1.667
1.667
1.676
1.681
1.667
1.662
1.681
1.691
1.691
1.681
1.691
1.706
1.691
1.676
1.691
1.706
1.701
1.691
1.696
1.716
1.716
1.701
1.701
1.72
1.725
1.716
1.716
1.73
1.735
1.72
1.716
1.73
1.74
1.735
1.73
1.74
1.755
1.745
1.73
1.74
1.755
1.75
1.74
1.735
1.745
1.74
1.716
1.716
1.735
1.74
1.735
1.73
1.745
1.755
1.735
1.725
1.74
1.74
1.73
1.72
1.72
1.73
1.716
1.696
1.706
1.716
1.706
1.691
1.686
1.701
1.696
1.672
1.676
1.686
1.681
1.672
1.657
1.662
1.667
1.642
1.632
1.647
1.652
1.642
1.632
1.637
1.647
1.637
1.623
1.628
1.637
1.637
1.628
1.628
1.642
1.637
1.618
1.618
1.637
1.637
1.628
1.623
1.632
1.637
1.618
1.613
1.632
1.637
1.632
1.628
1.642
1.657
1.647
1.632
1.642
1.652
1.647
1.637
1.642
1.652
1.652
1.628
1.632
1.647
1.652
1.642
1.637
1.647
1.657
1.642
1.637
1.652
1.662
1.657
1.652
1.657
1.667
1.657
1.637
1.647
1.657
1.652
1.642
1.642
1.652
1.652
1.632
1.632
1.647
1.652
1.637
1.632
1.642
1.652
1.632
1.628
1.652
1.662
1.657
1.647
1.652
1.662
1.647
1.628
1.637
1.647
1.647
1.642
1.637
1.657
1.652
1.632
1.632
1.647
1.652
1.642
1.637
1.647
1.657
1.637
1.632
1.652
1.662
1.652
1.642
1.647
1.657
1.647
1.632
1.642
1.657
1.652
1.642
1.642
1.657
1.657
1.637
1.637
1.652
1.652
1.642
1.637
1.647
1.652
1.637
1.628
1.642
1.657
1.652
1.647
1.652
1.667
1.657
1.637
1.642
1.657
1.652
1.642
1.647
1.662
1.657
1.642
1.642
1.657
1.657
1.652
1.647
1.657
1.667
1.647
1.642
1.652
1.662
1.657
1.647
1.652
1.667
1.657
1.642
1.647
1.662
1.657
1.647
1.647
1.657
1.662
1.647
1.652
1.676
1.681
1.676
1.672
1.686
1.691
1.672
1.662
1.676
1.691
1.686
1.686
1.696
1.725
1.72
1.711
1.725
1.745
1.745
1.735
1.73
1.74
1.735
1.711
1.711
1.725
1.725
1.716
1.706
1.711
1.716
1.691
1.681
1.691
1.696
1.681
1.667
1.667
1.672
1.657
1.637
1.642
1.662
1.662
1.652
1.652
1.667
1.672
1.647
1.647
1.657
1.657
1.647
1.637
1.647
1.647
1.618
1.593
1.593
1.588
1.574
1.564
1.579
1.623
1.657
1.711
1.818
1.945
2.058
2.155
2.234
2.302
2.326
2.302
2.268
2.229
2.16
2.063
1.975
1.901
1.833
1.755
1.696
1.667
1.652
1.628
1.618
1.628
1.652
1.652
1.642
1.647
1.657
1.647
1.628
1.623
1.632
1.637
1.618
1.618
1.637
1.642
1.632
1.623
1.632
1.642
1.623
1.613
1.628
1.642
1.637
1.632
1.637
1.657
1.647
1.628
1.637
1.652
1.652
1.642
1.642
1.657
1.657
1.637
1.637
1.652
1.657
1.652
1.642
1.657
1.667
1.657
1.647
1.667
1.681
1.672
1.667
1.672
1.686
1.676
1.662
1.672
1.691
1.691
1.681
1.681
1.696
1.696
1.676
1.676
1.696
1.706
1.701
1.696
1.711
1.725
1.706
1.696
1.716
1.725
1.72
1.711
1.716
1.73
1.72
1.711
1.72
1.74
1.74
1.735
1.74
1.755
1.76
1.735
1.73
1.75
1.755
1.745
1.735
1.745
1.755
1.74
1.735
1.75
1.76
1.75
1.735
1.74
1.75
1.745
1.73
1.74
1.755
1.755
1.745
1.74
1.75
1.745
1.72
1.711
1.725
1.725
1.716
1.706
1.716
1.72
1.706
1.691
1.696
1.701
1.691
1.676
1.672
1.681
1.667
1.642
1.647
1.662
1.657
1.642
1.642
1.657
1.657
1.632
1.632
1.647
1.647
1.637
1.628
1.637
1.642
1.623
1.613
1.628
1.642
1.637
1.632
1.632
1.647
1.642
1.623
1.632
1.647
1.642
1.632
1.632
1.642
1.647
1.628
1.628
1.647
1.657
1.647
1.642
1.657
1.667
1.647
1.637
1.652
1.662
1.652
1.642
1.647
1.662
1.652
1.632
1.637
1.657
1.652
1.647
1.642
1.657
1.662
1.642
1.637
1.652
1.657
1.652
1.642
1.652
1.662
1.647
1.637
1.647
1.657
1.652
1.642
1.647
1.662
1.657
1.642
1.647
1.662
1.662
1.652
1.647
1.657
1.657
1.637
1.632
1.652
1.657
1.652
1.642
1.652
1.662
1.642
1.632
1.642
1.652
1.647
1.637
1.637
1.652
1.647
1.632
1.637
1.652
1.652
1.642
1.642
1.657
1.662
1.642
1.642
1.657
1.662
1.652
1.642
1.647
1.657
1.637
1.628
1.642
1.657
1.657
1.652
1.652
1.672
1.662
1.642
1.647
1.662
1.657
1.647
1.647
1.657
1.662
1.642
1.642
1.657
1.662
1.647
1.642
1.652
1.662
1.647
1.632
1.647
1.662
1.657
1.652
1.657
1.672
1.662
1.642
1.647
1.662
1.662
1.657
1.652
1.667
1.672
1.647
1.647
1.662
1.667
1.657
1.647
1.652
1.662
1.647
1.637
1.647
1.667
1.662
1.657
1.667
1.686
1.686
1.672
1.681
1.696
1.696
1.691
1.686
1.706
1.711
1.701
1.706
1.73
1.745
1.745
1.74
1.745
1.755
1.73
1.711
1.716
1.725
1.716
1.711
1.711
1.73
1.725
1.701
1.706
1.716
1.706
1.686
1.676
1.681
1.681
1.657
1.652
1.662
1.667
1.657
1.647
1.657
1.667
1.657
1.647
1.662
1.676
1.672
1.657
1.657
1.662
1.652
1.623
1.618
1.618
1.603
1.584
1.564
1.574
1.584
1.579
1.613
1.686
1.774
1.872
1.975
2.097
2.204
2.263
2.297
2.326
2.326
2.283
2.209
2.136
2.063
1.97
1.867
1.799
1.75
1.701
1.652
1.628
1.632
1.637
1.628
1.637
1.662
1.676
1.667
1.652
1.647
1.652
1.632
1.618
1.628
1.642
1.637
1.628
1.632
1.647
1.647
1.632
1.642
1.662
1.667
1.657
1.652
1.657
1.662
1.632
1.628
1.642
1.652
1.647
1.637
1.652
1.672
1.662
1.647
1.662
1.672
1.667
1.657
1.662
1.676
1.672
1.652
1.657
1.681
1.681
1.681
1.681
1.691
1.701
1.681
1.676
1.696
1.701
1.696
1.691
1.701
1.716
1.706
1.691
1.701
1.72
1.716
1.711
1.716
1.735
1.73
1.711
1.716
1.73
1.73
1.72
1.716
1.73
1.74
1.725
1.725
1.745
1.76
1.755
1.75
1.76
1.769
1.76
1.745
1.755
1.769
1.764
1.76
1.76
1.774
1.774
1.755
1.76
1.774
1.779
1.769
1.76
1.769
1.774
1.75
1.74
1.75
1.755
1.745
1.735
1.745
1.76
1.745
1.73
1.745
1.755
1.75
1.735
1.73
1.74
1.725
1.701
1.701
1.716
1.716
1.706
1.701
1.711
1.716
1.691
1.681
1.691
1.691
1.676
1.657
1.657
1.667
1.647
1.632
1.637
1.652
1.642
1.637
1.637
1.652
1.652
1.632
1.637
1.657
1.657
1.642
1.637
1.642
1.647
1.628
1.623
1.642
1.652
1.652
1.642
1.647
1.662
1.647
1.632
1.647
1.662
1.657
1.647
1.652
1.667
1.662
1.642
1.642
1.657
1.657
1.647
1.647
1.662
1.672
1.652
1.652
1.667
1.676
1.667
1.657
1.662
1.672
1.662
1.647
1.657
1.676
1.672
1.667
1.662
1.676
1.672
1.647
1.652
1.662
1.667
1.657
1.657
1.667
1.676
1.657
1.647
1.662
1.667
1.657
1.647
1.652
1.662
1.652
1.637
1.652
1.667
1.667
1.657
1.662
1.672
1.672
1.652
1.657
1.672
1.676
1.662
1.657
1.662
1.662
1.642
1.632
1.647
1.657
1.652
1.642
1.652
1.667
1.657
1.642
1.652
1.662
1.657
1.647
1.647
1.662
1.662
1.647
1.652
1.667
1.672
1.662
1.657
1.662
1.672
1.652
1.642
1.657
1.667
1.662
1.652
1.662
1.672
1.662
1.642
1.647
1.662
1.657
1.652
1.657
1.672
1.672
1.657
1.662
1.676
1.681
1.672
1.672
1.691
1.701
1.686
1.681
1.701
1.716
1.716
1.711
1.72
1.74
1.735
1.72
1.73
1.75
1.74
1.73
1.725
1.735
1.73
1.711
1.716
1.73
1.725
1.716
1.706
1.716
1.72
1.691
1.676
1.681
1.681
1.672
1.657
1.662
1.672
1.662
1.642
1.652
1.672
1.672
1.657
1.657
1.672
1.667
1.647
1.647
1.662
1.662
1.652
1.642
1.647
1.652
1.628
1.618
1.628
1.628
1.618
1.603
1.613
1.637
1.657
1.686
1.76
1.857
1.935
1.999
2.063
2.121
2.146
2.131
2.111
2.087
2.033
1.96
1.887
1.833
1.779
1.711
1.662
1.647
1.637
1.618
1.613
1.632
1.657
1.657
1.642
1.657
1.667
1.662
1.647
1.642
1.657
1.657
1.632
1.637
1.647
1.647
1.642
1.637
1.652
1.662
1.647
1.642
1.657
1.672
1.662
1.652
1.657
1.672
1.662
1.647
1.657
1.676
1.676
1.667
1.667
1.681
1.681
1.662
1.662
1.676
1.681
1.672
1.667
1.676
1.686
1.667
1.662
1.676
1.691
1.686
1.676
1.686
1.701
1.696
1.681
1.691
1.706
1.706
1.701
1.701
1.716
1.72
1.701
1.701
1.72
1.725
1.72
1.716
1.73
1.745
1.73
1.72
1.735
1.745
1.74
1.73
1.74
1.755
1.745
1.73
1.74
1.76
1.76
1.75
1.755
1.769
1.769
1.75
1.755
1.779
1.784
1.779
1.769
1.774
1.784
1.76
1.745
1.76
1.769
1.764
1.76
1.764
1.779
1.769
1.75
1.76
1.769
1.76
1.745
1.745
1.755
1.755
1.73
1.73
1.745
1.75
1.74
1.73
1.735
1.74
1.72
1.701
1.706
1.711
1.696
1.681
1.681
1.691
1.676
1.652
1.657
1.667
1.662
1.652
1.647
1.662
1.662
1.637
1.637
1.652
1.652
1.642
1.632
1.642
1.647
1.632
1.623
1.637
1.652
1.642
1.637
1.637
1.652
1.642
1.623
1.632
1.642
1.642
1.637
1.632
1.652
1.652
1.637
1.637
1.652
1.657
1.647
1.642
1.652
1.662
1.642
1.632
1.652
1.667
1.662
1.657
1.657
1.672
1.662
1.642
1.647
1.662
1.662
1.657
1.652
1.667
1.672
1.652
1.647
1.662
1.662
1.657
1.647
1.657
1.667
1.652
1.642
1.657
1.667
1.657
1.647
1.647
1.662
1.652
1.632
1.642
1.657
1.657
1.647
1.647
1.662
1.662
1.637
1.632
1.647
1.652
1.642
1.637
1.647
1.662
1.642
1.637
1.652
1.662
1.657
1.642
1.642
1.657
1.647
1.628
1.637
1.652
1.647
1.637
1.637
1.652
1.652
1.632
1.628
1.642
1.647
1.642
1.632
1.642
1.657
1.642
1.628
1.642
1.657
1.652
1.647
1.652
1.672
1.667
1.652
1.662
1.681
1.686
1.676
1.676
1.696
1.701
1.686
1.691
1.716
1.725
1.72
1.716
1.725
1.73
1.711
1.696
1.706
1.716
1.706
1.701
1.701
1.711
1.706
1.681
1.686
1.691
1.686
1.672
1.662
1.667
1.667
1.642
1.637
1.652
1.652
1.642
1.632
1.637
1.647
1.632
1.623
1.637
1.647
1.642
1.632
1.637
1.647
1.637
1.618
1.618
1.628
1.618
1.598
1.579
1.584
1.579
1.559
1.564
1.603
1.647
1.706
1.779
1.887
1.999
2.072
2.136
2.199
2.239
2.234
2.199
2.155
2.102
2.014
1.911
1.833
1.779
1.716
1.657
1.618
1.608
1.603
1.588
1.593
1.623
1.642
1.642
1.637
1.642
1.647
1.628
1.608
1.618
1.628
1.618
1.608
1.613
1.628
1.623
1.603
1.613
1.632
1.632
1.632
1.632
1.647
1.647
1.628
1.623
1.642
1.647
1.637
1.628
1.637
1.647
1.637
1.628
1.642
1.652
1.647
1.637
1.642
1.657
1.657
1.637
1.647
1.667
1.662
1.652
1.647
1.662
1.662
1.642
1.637
1.657
1.672
1.667
1.667
1.681
1.691
1.681
1.667
1.681
1.696
1.691
1.686
1.686
1.701
1.696
1.676
1.686
1.706
1.711
1.706
1.706
1.725
1.735
1.716
1.711
1.725
1.73
1.725
1.716
1.725
1.74
1.725
1.72
1.735
1.755
1.755
1.745
1.75
1.76
1.755
1.73
1.735
1.745
1.745
1.73
1.73
1.74
1.745
1.725
1.725
1.74
1.75
1.74
1.73
1.735
1.745
1.725
1.711
1.72
1.735
1.725
1.716
1.716
1.73
1.72
1.696
1.696
1.701
1.696
1.681
1.672
1.681
1.686
1.662
1.657
1.667
1.667
1.657
1.642
1.642
1.652
1.632
1.618
1.632
1.642
1.637
1.628
1.623
1.637
1.628
1.608
1.613
1.632
1.632
1.628
1.628
1.637
1.642
1.623
1.618
1.632
1.642
1.632
1.628
1.632
1.642
1.632
1.618
1.628
1.642
1.642
1.632
1.637
1.652
1.647
1.628
1.632
1.652
1.647
1.637
1.632
1.647
1.652
1.637
1.632
1.647
1.657
1.647
1.642
1.647
1.662
1.647
1.632
1.647
1.662
1.657
1.647
1.647
1.657
1.652
1.628
1.632
1.647
1.647
1.637
1.637
1.652
1.662
1.642
1.637
1.652
1.657
1.642
1.632
1.642
1.652
1.637
1.623
1.632
1.647
1.642
1.632
1.632
1.652
1.647
1.628
1.637
1.652
1.652
1.642
1.632
1.642
1.647
1.628
1.623
1.637
1.647
1.642
1.637
1.647
1.657
1.647
1.628
1.637
1.652
1.642
1.632
1.632
1.647
1.642
1.623
1.628
1.647
1.647
1.642
1.637
1.647
1.657
1.632
1.628
1.642
1.647
1.637
1.628
1.632
1.647
1.637
1.623
1.637
1.652
1.647
1.642
1.642
1.657
1.662
1.642
1.652
1.672
1.681
1.676
1.676
1.691
1.706
1.691
1.691
1.716
1.73
1.725
1.72
1.725
1.735
1.716
1.696
1.701
1.711
1.701
1.691
1.691
1.706
1.706
1.681
1.676
1.686
1.681
1.667
1.652
1.667
1.667
1.642
1.632
1.647
1.652
1.642
1.632
1.637
1.642
1.632
1.613
1.623
1.637
1.632
1.623
1.623
1.637
1.632
1.608
1.603
1.613
1.603
1.579
1.564
1.569
1.579
1.574
1.598
1.662
1.75
1.848
1.95
2.067
2.175
2.239
2.268
2.292
2.292
2.253
2.185
2.102
2.028
1.94
1.833
1.764
1.72
1.672
1.628
1.598
1.598
1.608
1.598
1.608
1.637
1.657
1.647
1.628
1.628
1.632
1.618
1.593
1.603
1.623
1.618
1.613
1.613
1.632
1.632
1.613
1.613
1.632
1.637
1.628
1.623
1.632
1.642
1.628
1.618
1.632
1.642
1.637
1.628
1.632
1.642
1.632
1.618
1.623
1.642
1.637
1.632
1.632
1.647
1.652
1.637
1.637
1.657
1.662
1.657
1.652
1.667
1.676
1.657
1.652
1.672
1.681
1.676
1.667
1.676
1.686
1.681
1.662
1.672
1.691
1.691
1.681
1.686
1.701
1.701
1.681
1.686
1.701
1.706
1.696
1.696
1.711
1.716
1.701
1.696
1.716
1.73
1.725
1.72
1.73
1.745
1.735
1.716
1.72
1.735
1.735
1.725
1.725
1.74
1.745
1.725
1.725
1.74
1.745
1.735
1.725
1.735
1.745
1.725
1.716
1.73
1.74
1.73
1.72
1.725
1.735
1.725
1.706
1.716
1.725
1.72
1.706
1.706
1.716
1.711
1.686
1.681
1.696
1.696
1.676
1.667
1.672
1.676
1.652
1.642
1.657
1.662
1.657
1.647
1.647
1.657
1.642
1.623
1.628
1.637
1.632
1.623
1.623
1.637
1.637
1.613
1.613
1.628
1.632
1.623
1.618
1.628
1.637
1.618
1.613
1.628
1.642
1.632
1.623
1.628
1.642
1.628
1.613
1.618
1.637
1.637
1.628
1.632
1.642
1.652
1.632
1.637
1.652
1.657
1.647
1.637
1.652
1.662
1.642
1.628
1.642
1.647
1.642
1.632
1.632
1.642
1.632
1.613
1.623
1.642
1.642
1.637
1.637
1.652
1.652
1.628
1.628
1.647
1.652
1.642
1.637
1.647
1.657
1.642
1.628
1.642
1.647
1.637
1.632
1.632
1.647
1.642
1.628
1.637
1.652
1.647
1.637
1.632
1.642
1.642
1.623
1.623
1.637
1.642
1.637
1.632
1.642
1.652
1.637
1.623
1.637
1.647
1.647
1.642
1.647
1.657
1.647
1.628
1.628
1.642
1.637
1.628
1.623
1.637
1.642
1.623
1.628
1.642
1.652
1.647
1.637
1.647
1.652
1.632
1.623
1.637
1.647
1.642
1.632
1.637
1.657
1.652
1.632
1.642
1.652
1.647
1.637
1.632
1.647
1.652
1.632
1.637
1.657
1.662
1.657
1.652
1.662
1.676
1.662
1.657
1.672
1.691
1.691
1.691
1.701
1.72
1.716
1.701
1.716
1.735
1.73
1.725
1.716
1.725
1.725
1.701
1.696
1.711
1.711
1.701
1.691
1.701
1.706
1.686
1.672
1.676
1.681
1.667
1.652
1.647
1.657
1.642
1.623
1.628
1.642
1.642
1.632
1.632
1.652
1.657
1.637
1.628
1.642
1.647
1.637
1.623
1.628
1.628
1.603
1.579
1.579
1.579
1.564
1.559
1.579
1.623
1.676
1.735
1.848
1.979
2.092
2.18
2.248
2.307
2.326
2.292
2.248
2.204
2.131
2.038
1.945
1.867
1.804
1.72
1.652
1.623
1.613
1.593
1.588
1.598
1.632
1.637
1.628
1.632
1.642
1.632
1.618
1.613
1.628
1.637
1.618
1.613
1.628
1.628
1.618
1.608
1.618
1.632
1.623
1.613
1.632
1.647
1.642
1.632
1.632
1.642
1.637
1.623
1.628
1.647
1.647
1.637
1.632
1.642
1.647
1.628
1.623
1.642
1.647
1.642
1.637
1.647
1.662
1.652
1.637
1.657
1.672
1.667
1.662
1.672
1.686
1.681
1.662
1.662
1.681
1.681
1.672
1.672
1.686
1.691
1.676
1.672
1.691
1.701
1.696
1.691
1.706
1.716
1.701
1.686
1.701
1.716
1.711
1.706
1.716
1.735
1.73
1.716
1.72
1.74
1.74
1.73
1.725
1.74
1.745
1.725
1.725
1.745
1.75
1.745
1.74
1.745
1.755
1.74
1.725
1.74
1.75
1.745
1.73
1.73
1.745
1.74
1.72
1.725
1.735
1.735
1.725
1.725
1.735
1.74
1.72
1.711
1.725
1.73
1.72
1.711
1.711
1.72
1.706
1.686
1.691
1.701
1.691
1.681
1.676
1.686
1.676
1.647
1.647
1.657
1.647
1.637
1.628
1.637
1.642
1.623
1.623
1.637
1.647
1.642
1.637
1.637
1.652
1.632
1.623
1.632
1.642
1.642
1.632
1.632
1.647
1.642
1.623
1.628
1.647
1.647
1.637
1.637
1.647
1.652
1.632
1.628
1.647
1.657
1.652
1.642
1.652
1.662
1.647
1.632
1.647
1.657
1.652
1.642
1.642
1.657
1.657
1.637
1.642
1.662
1.662
1.652
1.647
1.662
1.667
1.647
1.642
1.657
1.662
1.652
1.642
1.652
1.662
1.652
1.632
1.647
1.662
1.657
1.647
1.647
1.662
1.657
1.637
1.637
1.657
1.657
1.647
1.642
1.652
1.657
1.637
1.632
1.652
1.662
1.652
1.642
1.647
1.657
1.642
1.628
1.637
1.652
1.647
1.642
1.647
1.662
1.662
1.642
1.642
1.657
1.657
1.642
1.637
1.647
1.652
1.632
1.623
1.637
1.647
1.642
1.637
1.642
1.657
1.647
1.632
1.642
1.652
1.647
1.637
1.642
1.657
1.652
1.637
1.642
1.662
1.662
1.657
1.657
1.667
1.676
1.657
1.652
1.672
1.681
1.672
1.667
1.676
1.696
1.691
1.681
1.701
1.72
1.725
1.72
1.72
1.73
1.73
1.711
1.711
1.725
1.725
1.72
1.716
1.725
1.735
1.711
1.696
1.706
1.711
1.701
1.691
1.691
1.696
1.681
1.657
1.662
1.667
1.662
1.647
1.642
1.652
1.652
1.628
1.637
1.652
1.662
1.652
1.647
1.657
1.667
1.642
1.632
1.642
1.642
1.628
1.613
1.608
1.613
1.588
1.564
1.579
1.598
1.613
1.637
1.696
1.789
1.882
1.95
2.038
2.126
2.18
2.195
2.19
2.18
2.146
2.063
1.984
1.926
1.857
1.779
1.716
1.672
1.652
1.623
1.598
1.613
1.632
1.642
1.647
1.652
1.662
1.657
1.632
1.628
1.642
1.647
1.637
1.637
1.647
1.652
1.632
1.623
1.637
1.647
1.637
1.628
1.637
1.652
1.642
1.632
1.642
1.662
1.662
1.652
1.652
1.672
1.672
1.647
1.647
1.667
1.667
1.657
1.652
1.662
1.672
1.652
1.647
1.662
1.676
1.672
1.672
1.676
1.691
1.676
1.662
1.672
1.686
1.686
1.676
1.681
1.696
1.706
1.686
1.696
1.716
1.72
1.711
1.706
1.711
1.716
1.696
1.691
1.706
1.725
1.72
1.72
1.725
1.74
1.735
1.716
1.725
1.74
1.74
1.735
1.735
1.75
1.755
1.735
1.74
1.76
1.76
1.755
1.75
1.764
1.769
1.755
1.745
1.76
1.769
1.764
1.755
1.76
1.769
1.76
1.745
1.75
1.764
1.76
1.75
1.745
1.755
1.755
1.73
1.73
1.75
1.75
1.74
1.735
1.745
1.75
1.73
1.716
1.725
1.73
1.716
1.701
1.701
1.711
1.696
1.672
1.672
1.681
1.676
1.667
1.662
1.672
1.667
1.647
1.642
1.657
1.652
1.637
1.628
1.637
1.642
1.628
1.618
1.637
1.652
1.647
1.637
1.642
1.657
1.642
1.623
1.628
1.642
1.637
1.632
1.632
1.647
1.652
1.637
1.637
1.652
1.657
1.647
1.642
1.652
1.662
1.647
1.637
1.647
1.662
1.652
1.642
1.647
1.662
1.652
1.637
1.647
1.662
1.667
1.657
1.657
1.672
1.672
1.652
1.652
1.667
1.667
1.662
1.652
1.662
1.672
1.652
1.642
1.662
1.672
1.662
1.652
1.652
1.667
1.652
1.632
1.642
1.657
1.657
1.647
1.647
1.662
1.667
1.647
1.642
1.657
1.662
1.652
1.642
1.652
1.662
1.642
1.632
1.642
1.652
1.647
1.637
1.642
1.657
1.647
1.632
1.637
1.652
1.652
1.642
1.637
1.652
1.652
1.632
1.628
1.647
1.652
1.642
1.637
1.652
1.667
1.652
1.642
1.657
1.672
1.667
1.657
1.662
1.681
1.672
1.657
1.667
1.691
1.696
1.696
1.701
1.72
1.725
1.711
1.706
1.725
1.725
1.716
1.701
1.711
1.716
1.701
1.691
1.706
1.716
1.706
1.691
1.686
1.696
1.676
1.652
1.647
1.657
1.647
1.637
1.628
1.642
1.647
1.632
1.632
1.647
1.652
1.642
1.632
1.637
1.642
1.628
1.613
1.628
1.637
1.632
1.623
1.623
1.632
1.618
1.593
1.588
1.593
1.588
1.574
1.574
1.598
1.623
1.642
1.701
1.799
1.891
1.965
2.033
2.097
2.151
2.155
2.141
2.126
2.087
2.019
1.935
1.862
1.804
1.73
1.652
1.613
1.603
1.588
1.579
1.588
1.618
1.637
1.628
1.632
1.647
1.652
1.637
1.628
1.632
1.637
1.623
1.608
1.623
1.637
1.632
1.623
1.623
1.637
1.632
1.613
1.623
1.637
1.637
1.628
1.628
1.642
1.647
1.628
1.623
1.642
1.647
1.637
1.628
1.637
1.652
1.637
1.628
1.642
1.662
1.662
1.652
1.657
1.672
1.667
1.647
1.652
1.667
1.667
1.662
1.662
1.672
1.681
1.662
1.662
1.676
1.686
1.681
1.676
1.686
1.701
1.686
1.672
1.686
1.701
1.701
1.691
1.696
1.72
1.716
1.696
1.701
1.72
1.725
1.716
1.711
1.725
1.73
1.711
1.706
1.725
1.74
1.735
1.73
1.745
1.755
1.745
1.73
1.74
1.75
1.745
1.735
1.735
1.75
1.75
1.735
1.735
1.755
1.75
1.74
1.735
1.745
1.75
1.725
1.72
1.735
1.74
1.73
1.716
1.72
1.73
1.716
1.691
1.701
1.716
1.706
1.696
1.696
1.706
1.696
1.672
1.672
1.686
1.681
1.667
1.657
1.662
1.662
1.632
1.628
1.637
1.637
1.632
1.623
1.628
1.642
1.628
1.613
1.623
1.637
1.632
1.623
1.623
1.637
1.632
1.608
1.618
1.632
1.632
1.623
1.618
1.628
1.632
1.613
1.608
1.628
1.637
1.637
1.628
1.642
1.652
1.637
1.623
1.632
1.647
1.642
1.637
1.637
1.652
1.647
1.628
1.632
1.642
1.642
1.637
1.632
1.647
1.657
1.642
1.637
1.657
1.667
1.657
1.652
1.657
1.667
1.647
1.628
1.637
1.647
1.647
1.637
1.637
1.652
1.647
1.628
1.632
1.647
1.647
1.637
1.628
1.642
1.652
1.632
1.628
1.647
1.652
1.642
1.637
1.637
1.647
1.637
1.618
1.632
1.647
1.642
1.632
1.628
1.637
1.632
1.613
1.613
1.632
1.637
1.632
1.632
1.647
1.657
1.637
1.632
1.642
1.652
1.642
1.632
1.637
1.647
1.637
1.618
1.632
1.647
1.642
1.637
1.637
1.647
1.642
1.623
1.623
1.642
1.637
1.632
1.623
1.637
1.642
1.623
1.618
1.637
1.647
1.642
1.632
1.642
1.657
1.642
1.628
1.637
1.652
1.647
1.637
1.637
1.657
1.657
1.637
1.647
1.667
1.672
1.667
1.667
1.686
1.696
1.686
1.686
1.711
1.72
1.72
1.716
1.725
1.735
1.72
1.701
1.706
1.716
1.706
1.696
1.696
1.711
1.711
1.686
1.686
1.701
1.696
1.681
1.667
1.672
1.676
1.657
1.647
1.657
1.662
1.647
1.632
1.637
1.647
1.632
1.618
1.632
1.652
1.647
1.637
1.637
1.652
1.642
1.618
1.613
1.618
1.608
1.588
1.569
1.574
1.579
1.559
1.569
1.618
1.681
1.75
1.843
1.965
2.087
2.175
2.229
2.283
2.312
2.297
2.248
2.185
2.116
2.023
1.921
1.843
1.789
1.73
1.672
1.628
1.618
1.613
1.593
1.598
1.628
1.652
1.652
1.642
1.642
1.647
1.628
1.603
1.613
1.623
1.628
1.618
1.618
1.632
1.632
1.613
1.613
1.632
1.637
1.628
1.623
1.632
1.642
1.623
1.613
1.632
1.642
1.637
1.628
1.632
1.642
1.632
1.618
1.632
1.647
1.647
1.637
1.642
1.657
1.657
1.637
1.642
1.662
1.667
1.662
1.657
1.667
1.676
1.662
1.657
1.672
1.676
1.667
1.662
1.667
1.681
1.672
1.652
1.662
1.681
1.681
1.676
1.681
1.696
1.701
1.681
1.686
1.701
1.706
1.701
1.696
1.711
1.72
1.706
1.701
1.72
1.735
1.725
1.72
1.725
1.74
1.73
1.711
1.72
1.735
1.735
1.73
1.735
1.75
1.75
1.73
1.73
1.75
1.75
1.74
1.725
1.735
1.745
1.725
1.716
1.73
1.735
1.73
1.72
1.725
1.735
1.725
1.706
1.716
1.73
1.725
1.711
1.706
1.716
1.711
1.681
1.681
1.691
1.696
1.681
1.676
1.681
1.691
1.667
1.652
1.662
1.667
1.657
1.642
1.647
1.662
1.647
1.628
1.632
1.647
1.642
1.632
1.628
1.637
1.637
1.613
1.613
1.628
1.628
1.618
1.613
1.628
1.637
1.623
1.618
1.632
1.647
1.642
1.632
1.632
1.642
1.632
1.618
1.623
1.642
1.642
1.637
1.642
1.657
1.662
1.637
1.637
1.652
1.652
1.642
1.632
1.637
1.642
1.628
1.618
1.632
1.642
1.637
1.632
1.637
1.652
1.647
1.632
1.637
1.657
1.657
1.647
1.642
1.657
1.662
1.637
1.637
1.652
1.652
1.647
1.637
1.647
1.657
1.637
1.628
1.642
1.652
1.647
1.637
1.642
1.657
1.647
1.632
1.637
1.652
1.652
1.642
1.642
1.652
1.652
1.632
1.632
1.647
1.652
1.642
1.632
1.642
1.652
1.637
1.628
1.637
1.647
1.642
1.637
1.642
1.657
1.652
1.628
1.632
1.652
1.647
1.642
1.642
1.652
1.657
1.632
1.632
1.647
1.647
1.637
1.628
1.637
1.652
1.637
1.628
1.642
1.657
1.647
1.637
1.642
1.657
1.647
1.632
1.637
1.657
1.657
1.647
1.642
1.657
1.657
1.637
1.637
1.647
1.652
1.647
1.642
1.652
1.662
1.652
1.642
1.662
1.676
1.676
1.672
1.681
1.701
1.701
1.691
1.706
1.725
1.73
1.725
1.72
1.735
1.74
1.72
1.711
1.725
1.725
1.716
1.706
1.706
1.716
1.696
1.676
1.686
1.701
1.691
1.676
1.672
1.681
1.667
1.647
1.647
1.662
1.657
1.647
1.642
1.657
1.657
1.637
1.637
1.652
1.657
1.652
1.642
1.652
1.657
1.637
1.618
1.618
1.623
1.603
1.584
1.574
1.579
1.579
1.574
1.608
1.676
1.75
1.843
1.96
2.087
2.199
2.258
2.307
2.346
2.341
2.297
2.224
2.151
2.072
1.97
1.867
1.804
1.75
1.691
1.642
1.618
1.618
1.613
1.598
1.623
1.647
1.657
1.652
1.642
1.647
1.642
1.618
1.608
1.628
1.632
1.628
1.618
1.623
1.632
1.618
1.608
1.628
1.642
1.642
1.632
1.632
1.647
1.642
1.623
1.628
1.637
1.632
1.623
1.618
1.632
1.642
1.628
1.628
1.652
1.662
1.657
1.652
1.657
1.672
1.657
1.642
1.652
1.667
1.662
1.652
1.657
1.672
1.672
1.657
1.667
1.686
1.686
1.681
1.676
1.691
1.696
1.676
1.667
1.686
1.696
1.691
1.686
1.696
1.711
1.696
1.681
1.701
1.716
1.716
1.711
1.711
1.73
1.73
1.716
1.72
1.74
1.74
1.73
1.73
1.745
1.755
1.735
1.735
1.755
1.76
1.755
1.74
1.75
1.76
1.745
1.725
1.735
1.745
1.74
1.735
1.74
1.755
1.75
1.725
1.73
1.745
1.745
1.735
1.73
1.74
1.745
1.725
1.72
1.735
1.74
1.725
1.716
1.72
1.725
1.706
1.691
1.701
1.711
1.706
1.691
1.686
1.696
1.686
1.662
1.662
1.672
1.667
1.652
1.647
1.657
1.662
1.642
1.637
1.647
1.652
1.642
1.632
1.632
1.642
1.632
1.618
1.632
1.642
1.642
1.632
1.637
1.652
1.652
1.632
1.632
1.652
1.657
1.647
1.642
1.652
1.657
1.632
1.628
1.642
1.652
1.647
1.642
1.652
1.662
1.652
1.637
1.652
1.667
1.662
1.657
1.657
1.672
1.667
1.642
1.647
1.662
1.657
1.647
1.647
1.657
1.667
1.647
1.637
1.652
1.662
1.652
1.642
1.652
1.662
1.652
1.637
1.647
1.662
1.657
1.647
1.647
1.657
1.652
1.637
1.642
1.657
1.662
1.652
1.647
1.657
1.662
1.642
1.637
1.652
1.662
1.657
1.647
1.657
1.667
1.652
1.637
1.642
1.652
1.647
1.642
1.642
1.662
1.662
1.642
1.642
1.662
1.662
1.652
1.642
1.652
1.657
1.637
1.632
1.647
1.657
1.652
1.642
1.652
1.672
1.657
1.642
1.652
1.662
1.657
1.647
1.647
1.662
1.657
1.642
1.647
1.662
1.667
1.657
1.652
1.657
1.662
1.642
1.637
1.657
1.667
1.662
1.652
1.657
1.667
1.657
1.642
1.652
1.662
1.657
1.652
1.652
1.667
1.667
1.652
1.657
1.676
1.676
1.672
1.667
1.681
1.686
1.667
1.662
1.681
1.691
1.691
1.691
1.701
1.72
1.72
1.711
1.725
1.745
1.745
1.74
1.74
1.755
1.75
1.725
1.72
1.73
1.73
1.725
1.72
1.73
1.735
1.711
1.701
1.716
1.72
1.706
1.691
1.686
1.691
1.676
1.652
1.662
1.672
1.667
1.657
1.657
1.672
1.672
1.652
1.652
1.667
1.662
1.652
1.647
1.662
1.672
1.652
1.637
1.647
1.642
1.628
1.598
1.593
1.598
1.588
1.584
1.623
1.691
1.76
1.843
1.94
2.048
2.131
2.17
2.209
2.243
2.234
2.19
2.131
2.067
1.999
1.906
1.828
1.774
1.73
1.681
1.642
1.632
1.642
1.632
1.628
1.642
1.667
1.667
1.657
1.652
1.662
1.657
1.637
1.637
1.657
1.662
1.657
1.652
1.657
1.667
1.647
1.637
1.657
1.667
1.662
1.652
1.657
1.672
1.662
1.647
1.657
1.672
1.672
1.662
1.662
1.676
1.676
1.657
1.652
1.672
1.676
1.667
1.667
1.676
1.691
1.676
1.672
1.686
1.696
1.691
1.681
1.686
1.701
1.691
1.676
1.686
1.701
1.701
1.691
1.696
1.711
1.716
1.696
1.706
1.725
1.73
1.72
1.72
1.73
1.74
1.72
1.711
1.725
1.74
1.735
1.73
1.735
1.75
1.745
1.725
1.74
1.755
1.76
1.75
1.755
1.769
1.769
1.75
1.75
1.764
1.769
1.764
1.76
1.769
1.784
1.764
1.755
1.774
1.784
1.779
1.769
1.774
1.784
1.769
1.75
1.755
1.769
1.764
1.755
1.75
1.769
1.769
1.745
1.74
1.755
1.755
1.74
1.73
1.735
1.74
1.72
1.711
1.72
1.73
1.72
1.706
1.706
1.72
1.706
1.686
1.686
1.696
1.686
1.672
1.667
1.672
1.672
1.647
1.647
1.662
1.667
1.657
1.652
1.657
1.667
1.642
1.628
1.642
1.657
1.652
1.647
1.652
1.662
1.652
1.632
1.642
1.652
1.652
1.642
1.637
1.652
1.657
1.642
1.642
1.662
1.667
1.657
1.652
1.662
1.672
1.652
1.642
1.657
1.672
1.667
1.662
1.667
1.681
1.676
1.657
1.662
1.681
1.676
1.667
1.667
1.681
1.681
1.662
1.657
1.672
1.676
1.667
1.662
1.667
1.681
1.662
1.652
1.667
1.676
1.667
1.657
1.662
1.672
1.662
1.642
1.652
1.667
1.667
1.657
1.657
1.667
1.672
1.652
1.652
1.667
1.667
1.662
1.652
1.662
1.672
1.657
1.642
1.657
1.672
1.662
1.652
1.652
1.667
1.657
1.637
1.647
1.662
1.657
1.647
1.647
1.662
1.662
1.637
1.637
1.652
1.662
1.657
1.652
1.662
1.667
1.652
1.637
1.652
1.662
1.657
1.652
1.662
1.676
1.672
1.657
1.667
1.686
1.686
1.681
1.676
1.696
1.696
1.681
1.686
1.711
1.72
1.716
1.716
1.73
1.74
1.725
1.716
1.73
1.74
1.73
1.72
1.72
1.73
1.72
1.696
1.696
1.706
1.701
1.686
1.681
1.686
1.686
1.657
1.652
1.662
1.662
1.647
1.637
1.647
1.652
1.637
1.628
1.642
1.652
1.647
1.637
1.642
1.657
1.652
1.632
1.642
1.657
1.652
1.632
1.623
1.623
1.613
1.579
1.569
1.588
1.608
1.632
1.672
1.75
1.843
1.916
1.984
2.063
2.126
2.151
2.151
2.141
2.111
2.053
1.965
1.901
1.848
1.779
1.716
1.662
1.642
1.628
1.598
1.603
1.628
1.642
1.652
1.647
1.657
1.667
1.642
1.623
1.628
1.637
1.632
1.623
1.623
1.637
1.632
1.613
1.623
1.637
1.642
1.637
1.637
1.647
1.652
1.632
1.628
1.647
1.652
1.642
1.632
1.647
1.662
1.652
1.642
1.652
1.662
1.657
1.647
1.652
1.667
1.662
1.642
1.647
1.667
1.672
1.667
1.662
1.676
1.681
1.657
1.657
1.672
1.681
1.676
1.672
1.686
1.701
1.691
1.681
1.696
1.711
1.701
1.696
1.696
1.711
1.706
1.686
1.696
1.716
1.72
1.711
1.711
1.725
1.735
1.716
1.711
1.73
1.74
1.735
1.73
1.74
1.75
1.74
1.725
1.735
1.755
1.75
1.74
1.745
1.76
1.755
1.74
1.74
1.76
1.755
1.745
1.74
1.75
1.76
1.74
1.73
1.75
1.755
1.745
1.735
1.745
1.75
1.735
1.72
1.73
1.745
1.735
1.725
1.725
1.735
1.73
1.706
1.706
1.716
1.716
1.696
1.686
1.691
1.691
1.662
1.652
1.657
1.662
1.647
1.642
1.647
1.657
1.637
1.623
1.632
1.642
1.637
1.628
1.628
1.642
1.632
1.613
1.613
1.628
1.632
1.623
1.623
1.632
1.642
1.618
1.618
1.632
1.642
1.637
1.628
1.632
1.642
1.623
1.603
1.613
1.628
1.623
1.618
1.623
1.642
1.642
1.628
1.637
1.657
1.662
1.652
1.647
1.657
1.662
1.637
1.632
1.647
1.652
1.647
1.637
1.647
1.662
1.647
1.632
1.647
1.657
1.652
1.642
1.637
1.652
1.647
1.628
1.632
1.652
1.652
1.642
1.637
1.652
1.657
1.637
1.628
1.642
1.652
1.642
1.637
1.642
1.657
1.647
1.632
1.647
1.657
1.652
1.637
1.637
1.647
1.642
1.623
1.628
1.647
1.647
1.642
1.637
1.652
1.657
1.632
1.623
1.637
1.642
1.632
1.623
1.632
1.647
1.637
1.628
1.637
1.652
1.647
1.632
1.637
1.647
1.647
1.628
1.632
1.647
1.652
1.642
1.637
1.647
1.652
1.628
1.623
1.637
1.642
1.637
1.632
1.637
1.657
1.642
1.628
1.637
1.652
1.652
1.642
1.642
1.652
1.652
1.632
1.632
1.652
1.657
1.652
1.657
1.676
1.686
1.672
1.667
1.686
1.701
1.696
1.696
1.711
1.725
1.716
1.706
1.716
1.725
1.72
1.706
1.701
1.716
1.711
1.686
1.691
1.711
1.706
1.696
1.681
1.691
1.691
1.667
1.657
1.672
1.672
1.662
1.647
1.647
1.657
1.642
1.618
1.628
1.642
1.637
1.632
1.632
1.647
1.642
1.623
1.623
1.642
1.637
1.623
1.613
1.613
1.608
1.574
1.554
1.559
1.564
1.569
1.584
1.642
1.725
1.808
1.901
2.028
2.146
2.224
2.263
2.287
2.297
2.263
2.185
2.111
2.043
1.955
1.867
1.784
1.73
1.686
1.628
1.593
1.598
1.608
1.608
1.613
1.628
1.652
1.642
1.618
1.618
1.628
1.618
1.613
1.613
1.628
1.632
1.613
1.618
1.632
1.628
1.618
1.608
1.618
1.623
1.608
1.598
1.618
1.628
1.628
1.623
1.632
1.642
1.637
1.623
1.632
1.647
1.647
1.637
1.637
1.647
1.642
1.623
1.623
1.642
1.642
1.637
1.637
1.657
1.672
1.657
1.652
1.667
1.676
1.672
1.662
1.667
1.676
1.667
1.647
1.657
1.676
1.676
1.672
1.676
1.696
1.696
1.676
1.676
1.691
1.701
1.691
1.691
1.706
1.72
1.706
1.701
1.711
1.72
1.711
1.701
1.706
1.72
1.716
1.706
1.716
1.735
1.735
1.725
1.725
1.735
1.735
1.711
1.716
1.74
1.745
1.745
1.735
1.745
1.75
1.725
1.716
1.72
1.73
1.725
1.716
1.72
1.74
1.735
1.72
1.725
1.74
1.74
1.725
1.72
1.735
1.73
1.706
1.701
1.711
1.711
1.696
1.686
1.691
1.696
1.676
1.667
1.681
1.686
1.676
1.662
1.662
1.672
1.657
1.632
1.637
1.647
1.642
1.632
1.628
1.642
1.642
1.618
1.618
1.637
1.642
1.632
1.628
1.642
1.657
1.642
1.632
1.642
1.652
1.642
1.628
1.628
1.642
1.632
1.618
1.628
1.642
1.642
1.637
1.637
1.652
1.652
1.628
1.628
1.642
1.642
1.637
1.632
1.642
1.652
1.642
1.632
1.652
1.662
1.652
1.642
1.642
1.657
1.642
1.623
1.632
1.647
1.652
1.647
1.647
1.662
1.667
1.642
1.642
1.657
1.662
1.652
1.642
1.652
1.662
1.642
1.632
1.647
1.657
1.647
1.637
1.642
1.652
1.647
1.632
1.642
1.662
1.662
1.647
1.647
1.657
1.657
1.628
1.623
1.637
1.647
1.637
1.637
1.652
1.662
1.647
1.632
1.642
1.652
1.642
1.628
1.632
1.642
1.637
1.623
1.632
1.652
1.652
1.642
1.642
1.657
1.657
1.632
1.628
1.642
1.647
1.637
1.632
1.642
1.652
1.637
1.628
1.642
1.652
1.647
1.637
1.642
1.657
1.652
1.637
1.642
1.657
1.652
1.642
1.637
1.647
1.647
1.628
1.628
1.647
1.657
1.652
1.647
1.662
1.672
1.657
1.647
1.667
1.681
1.676
1.672
1.676
1.691
1.691
1.676
1.696
1.72
1.725
1.725
1.72
1.735
1.735
1.711
1.706
1.716
1.716
1.706
1.696
1.706
1.716
1.706
1.691
1.701
1.706
1.691
1.672
1.672
1.676
1.662
1.637
1.642
1.657
1.652
1.647
1.642
1.657
1.662
1.637
1.632
1.647
1.652
1.642
1.637
1.642
1.652
1.632
1.618
1.618
1.623
1.598
1.574
1.564
1.569
1.564
1.564
1.598
1.662
1.74
1.828
1.945
2.072
2.175
2.239
2.278
2.317
2.307
2.268
2.199
2.131
2.058
1.96
1.872
1.808
1.755
1.696
1.647
1.628
1.623
1.613
1.603
1.623
1.652
1.657
1.647
1.642
1.647
1.642
1.618
1.608
1.623
1.628
1.623
1.613
1.623
1.632
1.623
1.613
1.632
1.652
1.652
1.642
1.642
1.652
1.642
1.618
1.618
1.637
1.632
1.628
1.628
1.642
1.647
1.628
1.628
1.642
1.657
1.652
1.647
1.657
1.672
1.657
1.642
1.652
1.662
1.657
1.647
1.652
1.667
1.662
1.647
1.657
1.676
1.681
1.672
1.667
1.681
1.686
1.672
1.667
1.686
1.696
1.691
1.686
1.701
1.716
1.706
1.696
1.711
1.72
1.711
1.701
1.701
1.711
1.711
1.691
1.701
1.72
1.725
1.72
1.72
1.73
1.735
1.716
1.716
1.735
1.74
1.735
1.73
1.745
1.755
1.74
1.73
1.74
1.75
1.745
1.735
1.74
1.75
1.745
1.725
1.73
1.745
1.745
1.735
1.73
1.74
1.745
1.72
1.711
1.725
1.73
1.72
1.711
1.716
1.72
1.706
1.691
1.701
1.706
1.696
1.681
1.676
1.686
1.681
1.662
1.662
1.681
1.676
1.667
1.657
1.662
1.662
1.637
1.628
1.642
1.642
1.637
1.632
1.642
1.652
1.637
1.623
1.628
1.642
1.632
1.623
1.628
1.642
1.642
1.628
1.632
1.652
1.652
1.642
1.637
1.652
1.657
1.637
1.632
1.652
1.657
1.652
1.642
1.647
1.662
1.647
1.632
1.642
1.657
1.652
1.647
1.647
1.667
1.662
1.647
1.652
1.662
1.662
1.647
1.642
1.652
1.657
1.637
1.637
1.657
1.662
1.662
1.652
1.662
1.672
1.657
1.642
1.652
1.662
1.657
1.647
1.652
1.662
1.657
1.637
1.642
1.662
1.662
1.652
1.647
1.662
1.667
1.642
1.637
1.652
1.657
1.652
1.642
1.657
1.667
1.657
1.642
1.657
1.667
1.662
1.647
1.647
1.657
1.652
1.632
1.632
1.652
1.652
1.647
1.642
1.657
1.667
1.647
1.642
1.657
1.662
1.652
1.642
1.647
1.657
1.647
1.632
1.647
1.662
1.662
1.652
1.652
1.667
1.662
1.637
1.642
1.657
1.652
1.642
1.642
1.652
1.662
1.637
1.632
1.652
1.662
1.657
1.647
1.657
1.672
1.662
1.647
1.657
1.672
1.667
1.662
1.662
1.681
1.681
1.662
1.672
1.691
1.691
1.686
1.681
1.701
1.72
1.716
1.72
1.74
1.755
1.75
1.74
1.745
1.75
1.73
1.706
1.711
1.72
1.72
1.716
1.716
1.725
1.72
1.691
1.696
1.706
1.701
1.691
1.676
1.686
1.686
1.662
1.652
1.662
1.667
1.652
1.642
1.647
1.662
1.652
1.642
1.652
1.667
1.662
1.652
1.647
1.657
1.647
1.618
1.608
1.618
1.608
1.584
1.574
1.579
1.593
1.588
1.618
1.686
1.774
1.862
1.96
2.067
2.165
2.219
2.248
2.268
2.263
2.219
2.146
2.067
1.994
1.906
1.808
1.74
1.701
1.662
1.628
1.608
1.618
1.637
1.628
1.637
1.662
1.676
1.667
1.647
1.642
1.652
1.637
1.618
1.632
1.647
1.647
1.637
1.637
1.657
1.657
1.632
1.637
1.657
1.662
1.647
1.642
1.652
1.662
1.642
1.637
1.652
1.657
1.652
1.642
1.652
1.667
1.657
1.642
1.657
1.672
1.672
1.662
1.667
1.681
1.676
1.657
1.662
1.681
1.681
1.672
1.672
1.681
1.696
1.676
1.672
1.691
1.701
1.696
1.691
1.701
1.716
1.706
1.691
1.701
1.72
1.72
1.711
1.716
1.73
1.73
1.711
1.716
1.735
1.74
1.73
1.725
1.735
1.745
1.725
1.72
1.735
1.75
1.745
1.74
1.75
1.769
1.76
1.745
1.76
1.774
1.769
1.755
1.76
1.769
1.769
1.75
1.75
1.76
1.764
1.755
1.75
1.76
1.764
1.75
1.74
1.76
1.769
1.76
1.75
1.75
1.76
1.75
1.73
1.735
1.75
1.745
1.735
1.73
1.74
1.735
1.711
1.711
1.72
1.72
1.706
1.696
1.701
1.706
1.676
1.662
1.672
1.676
1.667
1.657
1.657
1.667
1.652
1.632
1.642
1.652
1.647
1.637
1.637
1.652
1.657
1.637
1.642
1.657
1.657
1.647
1.637
1.647
1.652
1.632
1.628
1.642
1.652
1.647
1.642
1.647
1.667
1.662
1.642
1.657
1.672
1.667
1.652
1.647
1.662
1.662
1.642
1.647
1.662
1.672
1.662
1.662
1.676
1.681
1.662
1.652
1.667
1.676
1.667
1.657
1.662
1.676
1.672
1.657
1.662
1.672
1.672
1.657
1.657
1.667
1.667
1.647
1.652
1.667
1.672
1.662
1.662
1.667
1.681
1.657
1.647
1.662
1.676
1.667
1.657
1.662
1.676
1.662
1.647
1.652
1.667
1.662
1.652
1.652
1.672
1.672
1.647
1.647
1.662
1.667
1.657
1.647
1.662
1.672
1.652
1.647
1.662
1.672
1.667
1.657
1.662
1.672
1.667
1.647
1.657
1.676
1.676
1.662
1.662
1.676
1.676
1.657
1.657
1.676
1.686
1.681
1.681
1.696
1.716
1.706
1.701
1.72
1.74
1.735
1.73
1.74
1.75
1.74
1.72
1.725
1.735
1.73
1.716
1.711
1.72
1.72
1.696
1.696
1.706
1.706
1.686
1.676
1.676
1.681
1.657
1.642
1.657
1.662
1.652
1.647
1.652
1.667
1.657
1.637
1.647
1.662
1.657
1.647
1.642
1.657
1.657
1.632
1.632
1.652
1.652
1.632
1.618
1.618
1.618
1.593
1.584
1.603
1.632
1.662
1.711
1.789
1.882
1.945
1.994
2.053
2.107
2.121
2.111
2.082
2.053
1.994
1.911
1.843
1.794
1.745
1.686
1.642
1.628
1.628
1.608
1.608
1.632
1.657
1.657
1.647
1.652
1.662
1.652
1.632
1.637
1.652
1.652
1.647
1.647
1.657
1.662
1.637
1.632
1.647
1.647
1.637
1.628
1.637
1.652
1.637
1.632
1.652
1.667
1.662
1.652
1.657
1.672
1.667
1.647
1.652
1.667
1.667
1.657
1.657
1.667
1.672
1.652
1.657
1.676
1.686
1.676
1.672
1.681
1.691
1.676
1.662
1.676
1.691
1.686
1.681
1.686
1.706
1.701
1.686
1.696
1.711
1.711
1.706
1.706
1.725
1.725
1.706
1.711
1.73
1.735
1.73
1.72
1.73
1.74
1.725
1.716
1.735
1.745
1.74
1.73
1.74
1.76
1.75
1.735
1.745
1.76
1.76
1.755
1.75
1.769
1.769
1.745
1.745
1.76
1.764
1.755
1.75
1.76
1.769
1.76
1.75
1.764
1.774
1.76
1.75
1.75
1.755
1.745
1.725
1.73
1.745
1.745
1.735
1.73
1.735
1.735
1.706
1.696
1.706
1.706
1.696
1.681
1.686
1.696
1.676
1.662
1.672
1.672
1.662
1.647
1.647
1.662
1.647
1.628
1.632
1.647
1.642
1.632
1.628
1.642
1.642
1.618
1.613
1.632
1.632
1.628
1.623
1.632
1.642
1.628
1.618
1.632
1.642
1.637
1.628
1.628
1.642
1.637
1.623
1.632
1.652
1.652
1.647
1.642
1.652
1.657
1.632
1.628
1.647
1.652
1.647
1.637
1.652
1.662
1.652
1.637
1.652
1.662
1.657
1.647
1.647
1.662
1.652
1.632
1.637
1.652
1.657
1.647
1.652
1.667
1.672
1.652
1.647
1.662
1.667
1.652
1.642
1.647
1.652
1.637
1.623
1.637
1.647
1.642
1.632
1.637
1.652
1.647
1.632
1.642
1.657
1.652
1.642
1.637
1.647
1.652
1.628
1.628
1.642
1.657
1.647
1.642
1.647
1.657
1.637
1.623
1.632
1.647
1.642
1.632
1.637
1.657
1.652
1.632
1.637
1.652
1.647
1.637
1.632
1.647
1.652
1.632
1.632
1.647
1.652
1.642
1.637
1.642
1.652
1.637
1.618
1.632
1.642
1.642
1.632
1.642
1.662
1.657
1.647
1.662
1.686
1.686
1.681
1.676
1.691
1.696
1.681
1.686
1.706
1.72
1.716
1.716
1.725
1.735
1.716
1.696
1.706
1.711
1.701
1.691
1.691
1.706
1.696
1.672
1.672
1.686
1.681
1.667
1.657
1.667
1.662
1.637
1.632
1.647
1.652
1.642
1.632
1.642
1.652
1.637
1.623
1.632
1.642
1.632
1.623
1.628
1.642
1.632
1.613
1.618
1.628
1.618
1.593
1.574
1.579
1.574
1.559
1.574
1.628
1.696
1.779
1.877
1.999
2.111
2.18
2.224
2.268
2.278
2.243
2.185
2.111
2.043
1.955
1.852
1.779
1.73
1.676
1.628
1.603
1.603
1.608
1.593
1.603
1.637
1.647
1.642
1.628
1.628
1.632
1.613
1.598
1.613
1.628
1.623
1.613
1.613
1.628
1.628
1.608
1.623
1.637
1.642
1.637
1.632
1.647
1.647
1.623
1.618
1.628
1.637
1.628
1.628
1.637
1.652
1.637
1.623
1.632
1.647
1.642
1.632
1.637
1.652
1.652
1.637
1.642
1.662
1.667
1.657
1.657
1.676
1.676
1.657
1.652
1.667
1.672
1.662
1.657
1.667
1.676
1.667
1.657
1.672
1.691
1.686
1.676
1.676
1.691
1.691
1.672
1.681
1.701
1.706
1.701
1.701
1.716
1.72
1.706
1.701
1.72
1.73
1.72
1.711
1.72
1.735
1.72
1.711
1.725
1.74
1.74
1.73
1.735
1.75
1.745
1.725
1.725
1.74
1.735
1.725
1.725
1.74
1.745
1.72
1.716
1.73
1.735
1.725
1.716
1.72
1.73
1.716
1.701
1.716
1.73
1.72
1.711
1.711
1.72
1.716
1.691
1.686
1.701
1.691
1.676
1.672
1.676
1.681
1.657
1.647
1.657
1.662
1.652
1.642
1.642
1.652
1.637
1.618
1.628
1.637
1.632
1.623
1.628
1.642
1.637
1.618
1.618
1.632
1.628
1.623
1.618
1.632
1.637
1.623
1.618
1.637
1.647
1.637
1.628
1.632
1.647
1.632
1.618
1.628
1.642
1.637
1.628
1.632
1.647
1.647
1.628
1.637
1.652
1.652
1.642
1.637
1.647
1.652
1.632
1.628
1.642
1.652
1.647
1.637
1.647
1.662
1.647
1.632
1.642
1.657
1.652
1.642
1.642
1.652
1.652
1.632
1.632
1.652
1.657
1.647
1.642
1.652
1.662
1.642
1.637
1.652
1.657
1.647
1.637
1.642
1.652
1.632
1.618
1.628
1.642
1.637
1.628
1.628
1.642
1.642
1.623
1.628
1.647
1.647
1.642
1.632
1.647
1.652
1.628
1.623
1.632
1.642
1.637
1.628
1.637
1.652
1.642
1.623
1.637
1.647
1.642
1.637
1.632
1.647
1.642
1.623
1.623
1.642
1.637
1.632
1.628
1.647
1.657
1.642
1.642
1.657
1.662
1.647
1.637
1.637
1.647
1.632
1.618
1.632
1.652
1.652
1.647
1.652
1.672
1.672
1.652
1.657
1.681
1.686
1.681
1.681
1.701
1.72
1.706
1.706
1.725
1.735
1.73
1.716
1.72
1.725
1.706
1.686
1.696
1.711
1.706
1.696
1.696
1.706
1.701
1.672
1.672
1.686
1.676
1.667
1.657
1.667
1.672
1.647
1.637
1.647
1.652
1.642
1.632
1.637
1.652
1.642
1.628
1.632
1.647
1.637
1.628
1.623
1.632
1.623
1.593
1.584
1.588
1.584
1.569
1.564
1.593
1.632
1.667
1.735
1.852
1.975
2.082
2.17
2.243
2.297
2.297
2.268
2.234
2.18
2.097
2.004
1.921
1.852
1.779
1.701
1.652
1.637
1.613
1.598
1.598
1.623
1.642
1.637
1.637
1.647
1.647
1.632
1.618
1.618
1.632
1.623
1.608
1.623
1.632
1.628
1.613
1.613
1.628
1.628
1.608
1.613
1.632
1.632
1.628
1.618
1.632
1.642
1.623
1.623
1.637
1.652
1.652
1.642
1.647
1.657
1.642
1.628
1.637
1.652
1.647
1.637
1.637
1.657
1.657
1.642
1.647
1.667
1.667
1.662
1.657
1.667
1.676
1.662
1.652
1.672
1.681
1.676
1.672
1.676
1.696
1.686
1.672
1.686
1.706
1.706
1.701
1.701
1.716
1.716
1.696
1.701
1.716
1.716
1.711
1.706
1.72
1.725
1.711
1.706
1.725
1.735
1.73
1.72
1.73
1.745
1.73
1.716
1.725
1.74
1.74
1.73
1.73
1.745
1.74
1.72
1.72
1.74
1.74
1.735
1.73
1.745
1.75
1.735
1.725
1.74
1.75
1.74
1.725
1.725
1.735
1.72
1.706
1.706
1.72
1.716
1.701
1.701
1.716
1.711
1.686
1.681
1.691
1.686
1.672
1.662
1.672
1.676
1.657
1.647
1.662
1.672
1.657
1.647
1.642
1.652
1.637
1.618
1.628
1.637
1.632
1.623
1.623
1.637
1.637
1.623
1.628
1.647
1.652
1.647
1.637
1.647
1.657
1.632
1.623
1.632
1.642
1.637
1.628
1.637
1.652
1.642
1.628
1.632
1.647
1.642
1.632
1.632
1.647
1.652
1.637
1.642
1.662
1.662
1.657
1.652
1.657
1.667
1.647
1.637
1.652
1.657
1.647
1.642
1.647
1.662
1.652
1.632
1.642
1.657
1.652
1.642
1.642
1.657
1.657
1.637
1.642
1.657
1.662
1.652
1.647
1.652
1.657
1.637
1.628
1.642
1.652
1.647
1.642
1.647
1.662
1.652
1.637
1.642
1.657
1.652
1.642
1.637
1.647
1.647
1.628
1.628
1.647
1.647
1.642
1.637
1.652
1.657
1.642
1.637
1.652
1.662
1.657
1.647
1.652
1.667
1.657
1.637
1.642
1.652
1.652
1.642
1.642
1.652
1.657
1.637
1.642
1.657
1.667
1.657
1.647
1.657
1.662
1.647
1.637
1.652
1.657
1.647
1.637
1.642
1.657
1.647
1.632
1.642
1.657
1.657
1.647
1.647
1.657
1.667
1.647
1.652
1.672
1.676
1.672
1.672
1.686
1.696
1.676
1.672
1.691
1.706
1.711
1.706
1.72
1.74
1.74
1.725
1.735
1.75
1.745
1.73
1.725
1.735
1.735
1.711
1.711
1.725
1.725
1.716
1.706
1.711
1.716
1.691
1.676
1.681
1.681
1.667
1.652
1.652
1.657
1.642
1.628
1.637
1.652
1.652
1.647
1.647
1.662
1.662
1.637
1.637
1.652
1.652
1.637
1.623
1.623
1.618
1.588
1.569
1.574
1.579
1.579
1.588
1.632
1.716
1.794
1.887
2.014
2.131
2.219
2.268
2.302
2.322
2.297
2.224
2.155
2.082
1.999
1.906
1.823
1.764
1.716
1.652
1.613
1.613
1.623
1.628
1.632
1.647
1.672
1.662
1.642
1.642
1.647
1.642
1.632
1.628
1.647
1.652
1.632
1.632
1.647
1.647
1.637
1.628
1.637
1.647
1.632
1.623
1.642
1.652
1.647
1.642
1.647
1.662
1.657
1.642
1.647
1.667
1.667
1.657
1.652
1.662
1.667
1.642
1.642
1.662
1.667
1.662
1.652
1.667
1.676
1.662
1.652
1.672
1.681
1.681
1.672
1.681
1.696
1.686
1.672
1.681
1.696
1.696
1.686
1.686
1.706
1.711
1.696
1.696
1.716
1.725
1.716
1.711
1.725
1.74
1.73
1.72
1.735
1.75
1.74
1.73
1.735
1.745
1.73
1.711
1.716
1.735
1.735
1.73
1.735
1.755
1.764
1.745
1.745
1.76
1.764
1.755
1.75
1.76
1.769
1.75
1.74
1.755
1.769
1.764
1.755
1.76
1.769
1.76
1.735
1.74
1.75
1.745
1.73
1.73
1.74
1.74
1.716
1.716
1.73
1.73
1.716
1.706
1.711
1.72
1.696
1.681
1.696
1.701
1.696
1.681
1.681
1.691
1.676
1.657
1.657
1.672
1.667
1.652
1.652
1.667
1.667
1.642
1.637
1.647
1.647
1.637
1.623
1.637
1.647
1.632
1.623
1.642
1.657
1.652
1.642
1.647
1.662
1.652
1.628
1.637
1.652
1.657
1.647
1.647
1.667
1.672
1.657
1.657
1.672
1.676
1.662
1.652
1.662
1.676
1.662
1.652
1.667
1.681
1.676
1.662
1.662
1.672
1.662
1.642
1.647
1.667
1.667
1.657
1.657
1.672
1.676
1.657
1.652
1.667
1.672
1.662
1.652
1.662
1.676
1.657
1.647
1.662
1.676
1.667
1.657
1.657
1.672
1.662
1.647
1.652
1.667
1.662
1.652
1.652
1.667
1.667
1.652
1.647
1.662
1.667
1.657
1.652
1.657
1.667
1.652
1.637
1.652
1.662
1.657
1.647
1.652
1.667
1.667
1.647
1.652
1.667
1.662
1.652
1.642
1.657
1.662
1.637
1.637
1.662
1.672
1.667
1.662
1.667
1.676
1.662
1.642
1.657
1.662
1.662
1.652
1.662
1.676
1.672
1.657
1.667
1.686
1.686
1.681
1.681
1.701
1.706
1.691
1.696
1.716
1.725
1.725
1.72
1.735
1.75
1.735
1.725
1.735
1.75
1.74
1.73
1.73
1.745
1.73
1.706
1.706
1.716
1.706
1.686
1.676
1.686
1.686
1.657
1.652
1.667
1.667
1.657
1.642
1.652
1.662
1.647
1.637
1.652
1.667
1.657
1.647
1.647
1.662
1.652
1.632
1.642
1.657
1.657
1.642
1.637
1.642
1.637
1.603
1.588
1.598
1.608
1.613
1.637
1.701
1.784
1.852
1.926
2.009
2.077
2.116
2.131
2.136
2.126
2.077
2.004
1.945
1.891
1.823
1.75
1.696
1.667
1.642
1.608
1.598
1.623
1.642
1.647
1.657
1.667
1.681
1.667
1.647
1.657
1.662
1.652
1.642
1.642
1.652
1.647
1.623
1.632
1.647
1.652
1.647
1.642
1.657
1.667
1.647
1.647
1.662
1.672
1.662
1.652
1.662
1.676
1.657
1.647
1.657
1.672
1.667
1.662
1.667
1.681
1.676
1.657
1.667
1.681
1.681
1.672
1.667
1.681
1.691
1.672
1.672
1.691
1.701
1.691
1.681
1.696
1.706
1.696
1.681
1.701
1.716
1.716
1.706
1.716
1.73
1.725
1.706
1.711
1.73
1.73
1.72
1.72
1.735
1.74
1.72
1.72
1.735
1.745
1.74
1.735
1.75
1.764
1.755
1.74
1.75
1.764
1.76
1.75
1.755
1.774
1.774
1.755
1.76
1.769
1.769
1.755
1.745
1.755
1.76
1.74
1.74
1.76
1.769
1.764
1.755
1.76
1.769
1.755
1.74
1.745
1.755
1.745
1.73
1.73
1.74
1.73
1.711
1.716
1.725
1.72
1.706
1.696
1.701
1.701
1.681
1.672
1.686
1.686
1.676
1.667
1.672
1.681
1.662
1.642
1.652
1.662
1.657
1.647
1.647
1.657
1.647
1.628
1.632
1.652
1.652
1.637
1.637
1.647
1.652
1.632
1.628
1.642
1.652
1.642
1.632
1.642
1.652
1.637
1.623
1.637
1.652
1.642
1.637
1.637
1.652
1.652
1.628
1.632
1.652
1.652
1.647
1.647
1.662
1.672
1.652
1.652
1.667
1.676
1.667
1.657
1.662
1.667
1.647
1.632
1.642
1.652
1.652
1.642
1.642
1.657
1.657
1.642
1.647
1.662
1.662
1.647
1.642
1.657
1.662
1.647
1.642
1.657
1.662
1.657
1.647
1.652
1.662
1.647
1.637
1.647
1.662
1.657
1.642
1.642
1.657
1.652
1.628
1.628
1.642
1.642
1.632
1.628
1.642
1.647
1.632
1.628
1.642
1.652
1.642
1.632
1.637
1.647
1.632
1.618
1.632
1.647
1.642
1.632
1.637
1.652
1.647
1.628
1.637
1.652
1.652
1.642
1.642
1.652
1.662
1.642
1.642
1.662
1.667
1.662
1.657
1.672
1.686
1.676
1.672
1.686
1.706
1.706
1.706
1.716
1.73
1.73
1.711
1.711
1.725
1.72
1.711
1.706
1.716
1.72
1.696
1.691
1.701
1.701
1.691
1.676
1.676
1.681
1.657
1.637
1.642
1.657
1.647
1.637
1.632
1.647
1.642
1.623
1.632
1.647
1.647
1.637
1.632
1.647
1.652
1.632
1.623
1.637
1.642
1.628
1.608
1.608
1.608
1.579
1.559
1.569
1.593
1.613
1.647
1.716
1.823
1.926
2.009
2.102
2.185
2.234
2.243
2.234
2.209
2.16
2.067
1.979
1.911
1.843
1.76
1.696
1.652
1.632
1.598
1.579
1.593
1.623
1.632
1.637
1.642
1.652
1.642
1.618
1.613
1.623
1.623
1.613
1.613
1.628
1.632
1.613
1.608
1.623
1.632
1.623
1.613
1.623
1.632
1.623
1.608
1.623
1.637
1.637
1.628
1.632
1.647
1.647
1.632
1.632
1.647
1.647
1.637
1.632
1.642
1.652
1.632
1.628
1.647
1.657
1.652
1.647
1.657
1.672
1.657
1.642
1.657
1.672
1.672
1.662
1.667
1.681
1.681
1.662
1.667
1.686
1.686
1.676
1.676
1.691
1.701
1.686
1.681
1.701
1.706
1.696
1.691
1.696
1.711
1.701
1.691
1.701
1.72
1.716
1.711
1.711
1.725
1.725
1.711
1.716
1.735
1.74
1.735
1.73
1.74
1.75
1.73
1.725
1.74
1.745
1.735
1.725
1.735
1.745
1.73
1.716
1.725
1.74
1.74
1.73
1.73
1.74
1.735
1.711
1.716
1.73
1.73
1.716
1.706
1.716
1.72
1.696
1.691
1.701
1.701
1.686
1.676
1.681
1.691
1.672
1.652
1.657
1.667
1.657
1.647
1.642
1.652
1.652
1.632
1.632
1.647
1.652
1.642
1.632
1.642
1.647
1.632
1.623
1.637
1.647
1.637
1.632
1.637
1.647
1.632
1.613
1.623
1.632
1.628
1.618
1.623
1.637
1.642
1.623
1.632
1.647
1.652
1.642
1.637
1.647
1.652
1.632
1.628
1.642
1.652
1.647
1.642
1.652
1.667
1.657
1.637
1.647
1.662
1.652
1.637
1.632
1.647
1.647
1.628
1.632
1.652
1.657
1.652
1.647
1.662
1.667
1.647
1.637
1.652
1.662
1.652
1.647
1.652
1.662
1.652
1.632
1.642
1.657
1.652
1.642
1.642
1.657
1.657
1.632
1.637
1.657
1.657
1.647
1.642
1.657
1.662
1.642
1.632
1.642
1.647
1.637
1.628
1.628
1.642
1.632
1.618
1.632
1.647
1.647
1.637
1.637
1.652
1.652
1.628
1.632
1.652
1.652
1.642
1.642
1.652
1.662
1.642
1.632
1.647
1.657
1.647
1.637
1.642
1.652
1.642
1.628
1.642
1.657
1.657
1.647
1.647
1.667
1.672
1.652
1.657
1.676
1.686
1.686
1.691
1.711
1.725
1.716
1.716
1.73
1.74
1.73
1.716
1.716
1.725
1.711
1.691
1.696
1.716
1.711
1.701
1.696
1.706
1.706
1.676
1.676
1.686
1.676
1.662
1.647
1.652
1.652
1.628
1.618
1.637
1.642
1.637
1.632
1.637
1.652
1.642
1.628
1.632
1.647
1.642
1.632
1.628
1.637
1.628
1.593
1.579
1.584
1.574
1.559
1.559
1.593
1.637
1.681
1.76
1.882
2.004
2.102
2.18
2.248
2.287
2.283
2.243
2.209
2.16
2.077
1.979
1.896
1.833
1.764
1.686
1.637
1.623
1.608
1.598
1.598
1.623
1.647
1.642
1.637
1.647
1.647
1.632
1.618
1.618
1.632
1.623
1.608
1.618
1.632
1.628
1.618
1.618
1.628
1.623
1.603
1.608
1.623
1.628
1.623
1.618
1.632
1.642
1.628
1.623
1.637
1.652
1.642
1.637
1.642
1.657
1.647
1.628
1.637
1.652
1.647
1.637
1.637
1.652
1.657
1.642
1.647
1.667
1.672
1.667
1.662
1.672
1.681
1.662
1.652
1.672
1.681
1.676
1.667
1.676
1.691
1.686
1.667
1.681
1.696
1.696
1.691
1.696
1.711
1.711
1.691
1.696
1.716
1.72
1.711
1.706
1.72
1.735
1.716
1.711
1.725
1.735
1.73
1.725
1.73
1.74
1.735
1.72
1.725
1.74
1.74
1.73
1.73
1.74
1.745
1.72
1.72
1.735
1.74
1.725
1.72
1.725
1.735
1.716
1.706
1.72
1.735
1.725
1.716
1.725
1.735
1.72
1.701
1.701
1.716
1.711
1.696
1.696
1.706
1.701
1.676
1.672
1.681
1.681
1.672
1.662
1.667
1.676
1.657
1.642
1.657
1.657
1.647
1.632
1.632
1.647
1.637
1.623
1.632
1.647
1.642
1.632
1.628
1.637
1.632
1.613
1.613
1.632
1.637
1.628
1.623
1.632
1.647
1.632
1.623
1.637
1.642
1.637
1.628
1.632
1.647
1.642
1.623
1.632
1.652
1.652
1.642
1.642
1.657
1.657
1.632
1.632
1.652
1.652
1.637
1.632
1.642
1.652
1.637
1.628
1.647
1.662
1.657
1.647
1.657
1.667
1.652
1.632
1.637
1.652
1.652
1.642
1.642
1.662
1.662
1.637
1.642
1.657
1.657
1.642
1.637
1.647
1.657
1.642
1.632
1.647
1.652
1.642
1.632
1.637
1.652
1.642
1.623
1.632
1.652
1.652
1.642
1.642
1.657
1.657
1.637
1.637
1.652
1.652
1.642
1.637
1.647
1.657
1.637
1.632
1.647
1.652
1.647
1.637
1.642
1.657
1.647
1.628
1.637
1.647
1.647
1.637
1.637
1.652
1.652
1.632
1.632
1.652
1.657
1.652
1.647
1.657
1.662
1.642
1.632
1.647
1.657
1.652
1.647
1.657
1.672
1.667
1.652
1.657
1.676
1.672
1.662
1.662
1.681
1.691
1.681
1.691
1.72
1.73
1.73
1.73
1.74
1.75
1.725
1.711
1.72
1.725
1.72
1.706
1.711
1.72
1.716
1.696
1.701
1.711
1.701
1.686
1.676
1.676
1.672
1.642
1.632
1.647
1.652
1.642
1.637
1.647
1.657
1.642
1.637
1.652
1.657
1.647
1.637
1.642
1.652
1.642
1.623
1.628
1.637
1.623
1.598
1.579
1.579
1.569
1.554
1.564
1.613
1.667
1.735
1.833
1.955
2.082
2.165
2.234
2.297
2.331
2.317
2.278
2.224
2.165
2.067
1.96
1.882
1.818
1.745
1.686
1.642
1.623
1.618
1.593
1.603
1.637
1.652
1.652
1.647
1.652
1.652
1.628
1.613
1.623
1.632
1.628
1.618
1.618
1.632
1.628
1.613
1.623
1.642
1.642
1.637
1.637
1.652
1.652
1.632
1.632
1.647
1.652
1.647
1.637
1.652
1.662
1.642
1.632
1.647
1.657
1.647
1.642
1.652
1.667
1.662
1.652
1.662
1.676
1.681
1.672
1.672
1.681
1.686
1.662
1.662
1.676
1.686
1.676
1.672
1.686
1.701
1.686
1.676
1.696
1.706
1.701
1.696
1.701
1.716
1.711
1.691
1.701
1.72
1.72
1.716
1.716
1.73
1.735
1.72
1.72
1.735
1.74
1.735
1.725
1.74
1.75
1.74
1.73
1.745
1.76
1.755
1.745
1.75
1.764
1.755
1.735
1.74
1.755
1.755
1.745
1.74
1.755
1.76
1.735
1.735
1.745
1.75
1.74
1.725
1.73
1.74
1.72
1.711
1.725
1.74
1.735
1.725
1.725
1.735
1.725
1.701
1.706
1.72
1.716
1.701
1.696
1.711
1.711
1.686
1.681
1.691
1.686
1.672
1.657
1.662
1.667
1.647
1.632
1.647
1.657
1.652
1.642
1.642
1.657
1.652
1.632
1.637
1.652
1.647
1.637
1.632
1.647
1.652
1.632
1.637
1.657
1.662
1.657
1.652
1.657
1.667
1.647
1.637
1.652
1.667
1.667
1.662
1.667
1.681
1.676
1.652
1.657
1.667
1.662
1.652
1.652
1.662
1.667
1.652
1.652
1.672
1.676
1.667
1.657
1.667
1.676
1.662
1.652
1.662
1.676
1.672
1.662
1.667
1.676
1.672
1.652
1.657
1.672
1.667
1.657
1.657
1.672
1.676
1.652
1.647
1.662
1.662
1.652
1.637
1.642
1.657
1.642
1.637
1.652
1.667
1.667
1.657
1.657
1.672
1.662
1.642
1.647
1.662
1.662
1.657
1.657
1.672
1.672
1.652
1.647
1.667
1.667
1.657
1.647
1.657
1.667
1.647
1.637
1.657
1.667
1.662
1.657
1.657
1.672
1.667
1.652
1.657
1.676
1.676
1.672
1.672
1.686
1.696
1.681
1.686
1.711
1.72
1.72
1.72
1.735
1.755
1.74
1.725
1.735
1.74
1.73
1.716
1.72
1.735
1.73
1.711
1.72
1.735
1.735
1.72
1.711
1.711
1.701
1.672
1.662
1.667
1.667
1.662
1.652
1.662
1.672
1.652
1.642
1.652
1.662
1.657
1.642
1.647
1.662
1.657
1.642
1.647
1.662
1.662
1.652
1.642
1.647
1.642
1.608
1.598
1.608
1.613
1.608
1.613
1.652
1.716
1.769
1.843
1.935
2.023
2.082
2.121
2.151
2.17
2.146
2.087
2.038
1.984
1.911
1.833
1.764
1.72
1.681
1.628
1.608
1.618
1.628
1.632
1.637
1.662
1.676
1.667
1.652
1.662
1.667
1.657
1.647
1.652
1.662
1.652
1.632
1.637
1.647
1.652
1.642
1.637
1.652
1.662
1.642
1.642
1.662
1.672
1.667
1.657
1.662
1.672
1.652
1.642
1.652
1.667
1.662
1.657
1.667
1.681
1.681
1.662
1.672
1.686
1.691
1.681
1.676
1.691
1.696
1.676
1.672
1.691
1.696
1.691
1.686
1.696
1.711
1.696
1.686
1.696
1.711
1.706
1.701
1.706
1.72
1.72
1.706
1.711
1.73
1.73
1.72
1.72
1.735
1.745
1.73
1.725
1.745
1.755
1.75
1.74
1.75
1.76
1.745
1.735
1.75
1.764
1.76
1.755
1.755
1.769
1.76
1.74
1.74
1.76
1.76
1.75
1.75
1.764
1.769
1.75
1.745
1.764
1.774
1.764
1.755
1.76
1.769
1.75
1.735
1.745
1.755
1.75
1.745
1.745
1.76
1.75
1.725
1.73
1.735
1.725
1.711
1.706
1.716
1.716
1.696
1.691
1.701
1.701
1.686
1.672
1.676
1.681
1.662
1.647
1.657
1.672
1.662
1.652
1.652
1.667
1.662
1.642
1.652
1.672
1.667
1.657
1.647
1.662
1.662
1.637
1.632
1.647
1.652
1.642
1.632
1.642
1.652
1.637
1.623
1.642
1.657
1.657
1.652
1.657
1.672
1.667
1.647
1.652
1.667
1.672
1.662
1.662
1.676
1.681
1.657
1.657
1.672
1.676
1.667
1.662
1.672
1.686
1.672
1.657
1.667
1.676
1.667
1.657
1.657
1.672
1.667
1.647
1.652
1.667
1.667
1.662
1.657
1.667
1.676
1.657
1.652
1.667
1.676
1.667
1.657
1.662
1.676
1.662
1.647
1.657
1.667
1.662
1.652
1.652
1.662
1.657
1.637
1.642
1.662
1.662
1.657
1.657
1.676
1.686
1.672
1.667
1.686
1.696
1.691
1.681
1.696
1.716
1.706
1.701
1.716
1.735
1.735
1.73
1.73
1.74
1.735
1.711
1.711
1.72
1.72
1.706
1.701
1.711
1.716
1.691
1.686
1.701
1.706
1.686
1.672
1.672
1.676
1.657
1.637
1.642
1.657
1.647
1.642
1.642
1.657
1.657
1.632
1.637
1.652
1.647
1.637
1.632
1.642
1.647
1.632
1.628
1.637
1.637
1.618
1.598
1.593
1.593
1.574
1.564
1.593
1.642
1.696
1.76
1.852
1.96
2.038
2.087
2.146
2.195
2.199
2.175
2.126
2.082
2.014
1.921
1.843
1.784
1.73
1.667
1.623
1.603
1.603
1.593
1.593
1.623
1.647
1.657
1.652
1.652
1.662
1.657
1.632
1.632
1.642
1.642
1.632
1.628
1.637
1.642
1.623
1.618
1.632
1.637
1.632
1.623
1.632
1.647
1.632
1.623
1.637
1.652
1.647
1.637
1.642
1.657
1.652
1.637
1.642
1.662
1.667
1.657
1.652
1.662
1.667
1.647
1.642
1.662
1.672
1.667
1.662
1.672
1.686
1.672
1.662
1.676
1.686
1.681
1.672
1.672
1.686
1.686
1.667
1.672
1.696
1.696
1.691
1.691
1.706
1.716
1.701
1.696
1.716
1.72
1.716
1.706
1.716
1.73
1.72
1.711
1.725
1.745
1.745
1.74
1.74
1.75
1.745
1.72
1.72
1.735
1.735
1.725
1.725
1.745
1.755
1.74
1.735
1.75
1.76
1.745
1.735
1.74
1.75
1.74
1.72
1.73
1.745
1.745
1.735
1.735
1.745
1.74
1.716
1.716
1.725
1.72
1.711
1.706
1.716
1.716
1.691
1.681
1.696
1.696
1.681
1.662
1.667
1.672
1.657
1.637
1.647
1.657
1.652
1.642
1.642
1.652
1.647
1.628
1.628
1.642
1.642
1.628
1.623
1.632
1.642
1.623
1.618
1.637
1.642
1.637
1.632
1.642
1.657
1.642
1.628
1.637
1.652
1.647
1.632
1.632
1.647
1.642
1.623
1.628
1.647
1.652
1.647
1.642
1.657
1.667
1.642
1.637
1.652
1.662
1.657
1.647
1.657
1.672
1.657
1.642
1.652
1.662
1.657
1.647
1.652
1.667
1.662
1.642
1.647
1.667
1.667
1.657
1.647
1.662
1.667
1.647
1.642
1.662
1.672
1.662
1.652
1.657
1.672
1.657
1.637
1.642
1.657
1.652
1.642
1.642
1.657
1.657
1.632
1.637
1.652
1.652
1.642
1.637
1.647
1.652
1.632
1.628
1.642
1.652
1.647
1.637
1.647
1.657
1.642
1.628
1.637
1.652
1.652
1.642
1.647
1.657
1.657
1.637
1.642
1.662
1.662
1.657
1.657
1.672
1.686
1.667
1.667
1.686
1.701
1.696
1.691
1.706
1.725
1.72
1.711
1.725
1.74
1.735
1.72
1.716
1.72
1.716
1.686
1.686
1.701
1.701
1.691
1.681
1.696
1.701
1.681
1.667
1.676
1.676
1.667
1.652
1.657
1.662
1.647
1.623
1.632
1.642
1.642
1.628
1.632
1.647
1.647
1.628
1.632
1.647
1.647
1.632
1.618
1.618
1.613
1.579
1.564
1.569
1.574
1.569
1.569
1.598
1.652
1.706
1.784
1.901
2.028
2.131
2.204
2.263
2.307
2.307
2.258
2.209
2.151
2.067
1.965
1.877
1.808
1.75
1.672
1.628
1.613
1.608
1.598
1.603
1.623
1.647
1.642
1.628
1.632
1.637
1.623
1.608
1.608
1.623
1.623
1.608
1.613
1.628
1.632
1.618
1.618
1.628
1.637
1.618
1.613
1.632
1.637
1.628
1.618
1.628
1.642
1.637
1.618
1.632
1.647
1.642
1.637
1.637
1.652
1.657
1.637
1.642
1.657
1.662
1.652
1.647
1.657
1.662
1.647
1.642
1.657
1.667
1.662
1.652
1.662
1.676
1.667
1.652
1.667
1.681
1.676
1.667
1.667
1.681
1.681
1.657
1.667
1.686
1.696
1.696
1.696
1.711
1.72
1.706
1.696
1.716
1.725
1.716
1.706
1.711
1.725
1.716
1.706
1.716
1.735
1.735
1.73
1.735
1.75
1.745
1.725
1.72
1.735
1.74
1.73
1.725
1.735
1.745
1.73
1.72
1.735
1.74
1.735
1.725
1.73
1.74
1.73
1.716
1.725
1.74
1.73
1.72
1.716
1.725
1.72
1.696
1.696
1.706
1.701
1.691
1.681
1.691
1.696
1.676
1.667
1.676
1.686
1.672
1.657
1.662
1.672
1.652
1.632
1.637
1.652
1.647
1.637
1.642
1.647
1.647
1.623
1.623
1.637
1.637
1.623
1.618
1.632
1.642
1.623
1.613
1.632
1.637
1.628
1.618
1.623
1.632
1.623
1.613
1.628
1.642
1.642
1.637
1.637
1.652
1.652
1.632
1.632
1.652
1.652
1.642
1.637
1.647
1.657
1.637
1.628
1.647
1.657
1.647
1.642
1.647
1.662
1.652
1.637
1.647
1.662
1.657
1.647
1.642
1.652
1.652
1.628
1.628
1.647
1.652
1.642
1.642
1.652
1.662
1.637
1.628
1.642
1.652
1.642
1.632
1.642
1.657
1.652
1.637
1.642
1.657
1.652
1.637
1.632
1.647
1.647
1.623
1.628
1.642
1.647
1.642
1.637
1.647
1.657
1.642
1.632
1.647
1.657
1.647
1.637
1.642
1.652
1.642
1.628
1.637
1.652
1.647
1.642
1.637
1.652
1.652
1.632
1.632
1.652
1.657
1.657
1.657
1.672
1.681
1.667
1.657
1.672
1.681
1.676
1.672
1.681
1.706
1.701
1.691
1.706
1.725
1.73
1.72
1.72
1.73
1.725
1.701
1.701
1.711
1.716
1.706
1.691
1.701
1.706
1.681
1.667
1.681
1.686
1.681
1.667
1.662
1.672
1.652
1.632
1.637
1.647
1.637
1.628
1.628
1.642
1.642
1.628
1.628
1.642
1.647
1.637
1.628
1.637
1.642
1.618
1.593
1.598
1.593
1.574
1.554
1.554
1.574
1.584
1.608
1.672
1.774
1.882
1.989
2.097
2.204
2.273
2.287
2.297
2.292
2.253
2.18
2.092
2.014
1.94
1.843
1.76
1.711
1.667
1.623
1.593
1.593
1.608
1.613
1.613
1.632
1.657
1.652
1.632
1.623
1.623
1.618
1.598
1.598
1.618
1.623
1.613
1.603
1.618
1.628
1.613
1.603
1.623
1.632
1.628
1.623
1.628
1.642
1.632
1.613
1.623
1.637
1.637
1.632
1.632
1.647
1.652
1.632
1.632
1.647
1.652
1.642
1.642
1.652
1.662
1.647
1.637
1.652
1.667
1.662
1.652
1.657
1.672
1.667
1.652
1.667
1.681
1.681
1.672
1.672
1.686
1.691
1.667
1.672
1.686
1.696
1.686
1.681
1.696
1.711
1.696
1.686
1.706
1.716
1.711
1.706
1.711
1.725
1.716
1.691
1.701
1.716
1.716
1.711
1.716
1.735
1.74
1.725
1.73
1.75
1.75
1.74
1.73
1.735
1.745
1.725
1.711
1.725
1.74
1.735
1.725
1.735
1.75
1.735
1.72
1.725
1.74
1.735
1.72
1.716
1.725
1.725
1.701
1.696
1.711
1.711
1.701
1.691
1.696
1.706
1.686
1.672
1.681
1.691
1.681
1.667
1.667
1.676
1.667
1.642
1.647
1.662
1.657
1.642
1.637
1.647
1.647
1.623
1.628
1.642
1.642
1.632
1.623
1.632
1.642
1.628
1.613
1.628
1.637
1.637
1.628
1.637
1.652
1.642
1.623
1.632
1.642
1.642
1.637
1.637
1.657
1.662
1.642
1.642
1.657
1.662
1.652
1.642
1.652
1.662
1.642
1.628
1.642
1.652
1.647
1.637
1.642
1.657
1.647
1.632
1.642
1.662
1.657
1.647
1.642
1.657
1.657
1.632
1.632
1.647
1.652
1.642
1.637
1.647
1.657
1.642
1.632
1.647
1.657
1.652
1.642
1.647
1.662
1.657
1.637
1.647
1.662
1.662
1.647
1.642
1.657
1.652
1.632
1.628
1.642
1.647
1.637
1.628
1.642
1.652
1.642
1.632
1.647
1.662
1.652
1.642
1.642
1.657
1.647
1.623
1.632
1.647
1.652
1.642
1.642
1.657
1.652
1.632
1.632
1.647
1.652
1.647
1.642
1.647
1.662
1.642
1.632
1.642
1.652
1.647
1.637
1.637
1.657
1.647
1.628
1.637
1.652
1.657
1.652
1.657
1.676
1.681
1.667
1.667
1.686
1.691
1.681
1.676
1.691
1.706
1.701
1.696
1.72
1.74
1.735
1.73
1.73
1.74
1.73
1.706
1.711
1.725
1.72
1.711
1.701
1.711
1.711
1.686
1.676
1.691
1.691
1.676
1.667
1.676
1.681
1.662
1.642
1.657
1.662
1.652
1.642
1.642
1.652
1.647
1.628
1.632
1.647
1.647
1.637
1.632
1.647
1.652
1.628
1.618
1.623
1.613
1.593
1.579
1.579
1.588
1.584
1.598
1.657
1.74
1.833
1.931
2.033
2.136
2.199
2.224
2.248
2.253
2.214
2.151
2.072
1.999
1.921
1.823
1.75
1.706
1.667
1.628
1.603
1.608
1.628
1.628
1.632
1.657
1.672
1.667
1.647
1.642
1.647
1.637
1.618
1.628
1.642
1.642
1.632
1.628
1.642
1.647
1.628
1.628
1.647
1.652
1.642
1.632
1.642
1.657
1.642
1.628
1.647
1.662
1.657
1.647
1.652
1.667
1.662
1.642
1.652
1.667
1.667
1.662
1.662
1.676
1.681
1.657
1.657
1.672
1.676
1.672
1.662
1.672
1.686
1.672
1.667
1.686
1.701
1.701
1.691
1.696
1.711
1.701
1.681
1.691
1.711
1.711
1.701
1.701
1.72
1.725
1.711
1.706
1.725
1.73
1.725
1.72
1.73
1.745
1.735
1.73
1.745
1.76
1.755
1.745
1.75
1.76
1.75
1.73
1.74
1.755
1.76
1.755
1.755
1.769
1.769
1.75
1.745
1.755
1.76
1.75
1.74
1.745
1.755
1.735
1.725
1.74
1.755
1.745
1.735
1.74
1.75
1.745
1.725
1.725
1.735
1.73
1.716
1.711
1.72
1.72
1.701
1.696
1.711
1.711
1.696
1.686
1.686
1.696
1.676
1.662
1.672
1.676
1.667
1.657
1.657
1.667
1.657
1.632
1.632
1.647
1.647
1.637
1.637
1.647
1.652
1.632
1.628
1.642
1.652
1.642
1.637
1.642
1.662
1.647
1.637
1.647
1.662
1.657
1.647
1.647
1.662
1.652
1.632
1.637
1.652
1.652
1.642
1.637
1.657
1.662
1.642
1.647
1.667
1.676
1.667
1.662
1.667
1.676
1.662
1.647
1.662
1.676
1.667
1.662
1.662
1.681
1.672
1.657
1.662
1.676
1.672
1.657
1.652
1.662
1.662
1.642
1.637
1.657
1.662
1.657
1.652
1.662
1.672
1.657
1.642
1.657
1.667
1.662
1.652
1.652
1.667
1.662
1.642
1.647
1.662
1.662
1.652
1.647
1.657
1.662
1.642
1.637
1.657
1.662
1.652
1.647
1.652
1.667
1.652
1.637
1.647
1.662
1.657
1.647
1.652
1.672
1.672
1.657
1.667
1.686
1.691
1.686
1.686
1.706
1.711
1.696
1.696
1.72
1.73
1.73
1.725
1.735
1.745
1.73
1.716
1.72
1.73
1.716
1.706
1.701
1.711
1.701
1.681
1.681
1.701
1.696
1.681
1.672
1.681
1.681
1.652
1.647
1.657
1.657
1.642
1.632
1.637
1.652
1.637
1.628
1.637
1.652
1.647
1.637
1.637
1.652
1.647
1.628
1.628
1.642
1.637
1.623
1.613
1.618
1.618
1.588
1.584
1.603
1.628
1.652
1.696
1.774
1.867
1.931
1.979
2.048
2.097
2.111
2.097
2.072
2.043
1.984
1.896
1.838
1.789
1.73
1.672
1.632
1.618
1.613
1.593
1.598
1.628
1.647
1.647
1.647
1.652
1.662
1.642
1.623
1.632
1.647
1.637
1.628
1.632
1.647
1.642
1.623
1.632
1.647
1.647
1.642
1.637
1.652
1.657
1.632
1.628
1.642
1.652
1.647
1.642
1.652
1.667
1.652
1.642
1.652
1.667
1.662
1.652
1.652
1.667
1.667
1.652
1.657
1.676
1.681
1.672
1.667
1.681
1.686
1.667
1.662
1.681
1.691
1.686
1.681
1.691
1.706
1.691
1.676
1.691
1.706
1.706
1.696
1.696
1.711
1.711
1.691
1.701
1.716
1.72
1.711
1.716
1.73
1.74
1.725
1.72
1.74
1.745
1.74
1.73
1.735
1.75
1.74
1.725
1.745
1.755
1.75
1.74
1.745
1.76
1.76
1.745
1.745
1.76
1.76
1.75
1.745
1.755
1.76
1.735
1.725
1.74
1.745
1.735
1.73
1.735
1.75
1.735
1.72
1.73
1.74
1.735
1.72
1.716
1.725
1.711
1.686
1.686
1.701
1.701
1.686
1.681
1.686
1.691
1.667
1.657
1.672
1.676
1.662
1.647
1.647
1.657
1.637
1.623
1.632
1.642
1.637
1.628
1.628
1.642
1.642
1.623
1.628
1.642
1.637
1.628
1.623
1.637
1.642
1.623
1.618
1.632
1.637
1.632
1.628
1.637
1.652
1.642
1.628
1.637
1.652
1.647
1.632
1.637
1.652
1.647
1.632
1.637
1.657
1.662
1.652
1.647
1.657
1.662
1.642
1.632
1.652
1.657
1.652
1.642
1.652
1.667
1.652
1.637
1.647
1.662
1.657
1.647
1.647
1.657
1.657
1.632
1.637
1.652
1.652
1.642
1.637
1.647
1.652
1.632
1.628
1.642
1.652
1.647
1.642
1.647
1.662
1.642
1.628
1.637
1.642
1.637
1.628
1.628
1.642
1.642
1.628
1.632
1.652
1.657
1.642
1.637
1.647
1.647
1.628
1.618
1.632
1.637
1.632
1.628
1.637
1.652
1.642
1.623
1.637
1.647
1.642
1.632
1.632
1.647
1.647
1.628
1.632
1.652
1.662
1.657
1.657
1.672
1.681
1.667
1.662
1.681
1.691
1.686
1.681
1.691
1.706
1.701
1.691
1.711
1.725
1.716
1.706
1.706
1.716
1.711
1.686
1.686
1.701
1.706
1.691
1.681
1.686
1.691
1.667
1.657
1.662
1.662
1.647
1.637
1.642
1.652
1.637
1.623
1.632
1.642
1.637
1.628
1.628
1.637
1.637
1.613
1.618
1.637
1.637
1.628
1.613
1.618
1.613
1.579
1.559
1.564
1.574
1.569
1.579
1.623
1.691
1.755
1.838
1.945
2.058
2.131
2.185
2.219
2.243
2.229
2.165
2.102
2.043
1.965
1.877
1.794
1.735
1.686
1.628
1.588
1.593
1.598
1.598
1.603
1.623
1.647
1.642
1.623
1.632
1.642
1.632
1.618
1.618
1.632
1.637
1.613
1.608
1.623
1.623
1.613
1.603
1.618
1.632
1.618
1.613
1.632
1.642
1.637
1.628
1.632
1.647
1.637
1.623
1.632
1.647
1.642
1.637
1.637
1.647
1.647
1.628
1.628
1.647
1.647
1.637
1.637
1.652
1.662
1.647
1.642
1.657
1.667
1.662
1.657
1.667
1.681
1.667
1.652
1.662
1.676
1.676
1.667
1.672
1.686
1.691
1.672
1.676
1.696
1.701
1.691
1.686
1.701
1.711
1.696
1.691
1.706
1.716
1.711
1.701
1.711
1.725
1.72
1.711
1.72
1.74
1.735
1.73
1.725
1.74
1.74
1.72
1.725
1.745
1.75
1.74
1.735
1.745
1.75
1.725
1.716
1.73
1.74
1.73
1.72
1.73
1.745
1.735
1.716
1.725
1.735
1.725
1.716
1.711
1.72
1.716
1.691
1.686
1.701
1.701
1.691
1.686
1.696
1.701
1.681
1.672
1.681
1.686
1.672
1.657
1.652
1.662
1.647
1.628
1.632
1.647
1.647
1.637
1.632
1.647
1.642
1.623
1.618
1.632
1.628
1.618
1.608
1.623
1.632
1.618
1.613
1.628
1.637
1.632
1.623
1.628
1.647
1.637
1.623
1.632
1.642
1.642
1.632
1.628
1.642
1.637
1.618
1.618
1.637
1.647
1.642
1.637
1.652
1.662
1.647
1.637
1.647
1.657
1.647
1.632
1.637
1.652
1.642
1.628
1.642
1.657
1.652
1.647
1.647
1.662
1.662
1.642
1.642
1.662
1.662
1.652
1.642
1.652
1.657
1.637
1.628
1.637
1.647
1.642
1.637
1.642
1.657
1.647
1.628
1.637
1.652
1.647
1.637
1.637
1.647
1.647
1.628
1.632
1.647
1.652
1.642
1.637
1.642
1.652
1.632
1.628
1.642
1.652
1.652
1.642
1.647
1.657
1.647
1.628
1.637
1.647
1.642
1.637
1.637
1.647
1.652
1.632
1.632
1.647
1.652
1.642
1.637
1.652
1.657
1.642
1.632
1.652
1.662
1.657
1.652
1.662
1.676
1.672
1.657
1.667
1.681
1.681
1.676
1.681
1.701
1.711
1.696
1.706
1.735
1.74
1.735
1.725
1.725
1.725
1.696
1.681
1.691
1.701
1.691
1.686
1.686
1.701
1.686
1.667
1.667
1.681
1.676
1.662
1.657
1.667
1.667
1.642
1.637
1.647
1.647
1.637
1.632
1.637
1.647
1.632
1.623
1.637
1.642
1.632
1.623
1.623
1.628
1.613
1.584
1.579
1.584
1.569
1.564
1.564
1.603
1.642
1.686
1.774
1.896
2.014
2.111
2.19
2.253
2.292
2.278
2.243
2.204
2.146
2.058
1.96
1.882
1.818
1.745
1.672
1.637
1.623
1.608
1.593
1.598
1.623
1.637
1.628
1.632
1.647
1.642
1.628
1.613
1.618
1.628
1.613
1.603
1.618
1.628
1.618
1.608
1.613
1.628
1.623
1.603
1.618
1.632
1.637
1.628
1.628
1.642
1.642
1.623
1.618
1.637
1.637
1.632
1.623
1.637
1.647
1.632
1.623
1.642
1.652
1.652
1.642
1.652
1.667
1.662
1.647
1.657
1.672
1.667
1.657
1.657
1.667
1.672
1.652
1.652
1.667
1.672
1.667
1.667
1.681
1.696
1.681
1.676
1.691
1.706
1.696
1.686
1.691
1.701
1.691
1.676
1.686
1.706
1.711
1.706
1.711
1.73
1.73
1.711
1.711
1.725
1.73
1.72
1.716
1.73
1.74
1.725
1.72
1.735
1.745
1.74
1.735
1.74
1.75
1.74
1.725
1.735
1.745
1.745
1.73
1.725
1.735
1.74
1.716
1.716
1.73
1.73
1.72
1.706
1.716
1.72
1.701
1.691
1.706
1.716
1.706
1.696
1.701
1.711
1.701
1.676
1.681
1.691
1.686
1.667
1.662
1.672
1.667
1.642
1.637
1.647
1.647
1.632
1.628
1.632
1.642
1.632
1.623
1.637
1.652
1.642
1.632
1.632
1.642
1.637
1.613
1.623
1.632
1.628
1.618
1.613
1.632
1.637
1.618
1.623
1.642
1.652
1.652
1.642
1.652
1.662
1.637
1.623
1.632
1.642
1.632
1.623
1.632
1.652
1.647
1.632
1.642
1.657
1.652
1.642
1.642
1.652
1.657
1.632
1.632
1.652
1.657
1.647
1.642
1.652
1.662
1.647
1.632
1.647
1.657
1.652
1.642
1.647
1.657
1.652
1.632
1.642
1.657
1.652
1.647
1.642
1.652
1.657
1.637
1.637
1.652
1.657
1.647
1.637
1.647
1.657
1.642
1.632
1.647
1.657
1.652
1.647
1.652
1.662
1.657
1.632
1.637
1.657
1.657
1.647
1.642
1.657
1.657
1.642
1.637
1.652
1.657
1.647
1.637
1.647
1.657
1.642
1.628
1.642
1.657
1.652
1.642
1.642
1.662
1.657
1.642
1.647
1.662
1.662
1.652
1.647
1.657
1.657
1.632
1.632
1.647
1.652
1.647
1.647
1.657
1.672
1.662
1.652
1.667
1.681
1.676
1.667
1.667
1.686
1.681
1.667
1.676
1.701
1.711
1.711
1.716
1.735
1.74
1.725
1.72
1.735
1.735
1.725
1.716
1.72
1.73
1.716
1.696
1.706
1.711
1.701
1.681
1.681
1.691
1.676
1.652
1.652
1.662
1.662
1.647
1.642
1.647
1.652
1.628
1.628
1.647
1.652
1.647
1.642
1.652
1.662
1.642
1.628
1.637
1.647
1.632
1.613
1.608
1.608
1.588
1.559
1.564
1.584
1.598
1.628
1.686
1.784
1.901
1.999
2.102
2.209
2.273
2.297
2.292
2.278
2.234
2.151
2.053
1.979
1.906
1.828
1.755
1.701
1.676
1.642
1.608
1.608
1.628
1.637
1.637
1.642
1.657
1.657
1.628
1.618
1.628
1.628
1.618
1.613
1.623
1.632
1.623
1.608
1.618
1.632
1.632
1.623
1.628
1.642
1.637
1.618
1.623
1.637
1.642
1.632
1.632
1.647
1.652
1.632
1.628
1.647
1.652
1.642
1.637
1.647
1.662
1.652
1.642
1.652
1.667
1.662
1.652
1.657
1.667
1.662
1.642
1.647
1.662
1.667
1.657
1.657
1.672
1.686
1.667
1.667
1.686
1.696
1.686
1.681
1.691
1.701
1.691
1.681
1.701
1.716
1.716
1.711
1.711
1.725
1.716
1.691
1.701
1.716
1.72
1.716
1.716
1.73
1.74
1.725
1.72
1.74
1.745
1.74
1.73
1.74
1.75
1.735
1.72
1.73
1.745
1.74
1.73
1.735
1.75
1.75
1.73
1.735
1.75
1.745
1.735
1.725
1.74
1.74
1.72
1.711
1.725
1.73
1.72
1.711
1.72
1.73
1.711
1.696
1.706
1.716
1.706
1.696
1.696
1.706
1.701
1.676
1.676
1.686
1.681
1.667
1.657
1.662
1.662
1.642
1.637
1.652
1.657
1.647
1.642
1.647
1.657
1.642
1.628
1.637
1.652
1.647
1.637
1.642
1.652
1.647
1.628
1.632
1.652
1.652
1.642
1.637
1.652
1.662
1.647
1.642
1.657
1.662
1.652
1.642
1.652
1.662
1.647
1.632
1.647
1.667
1.667
1.662
1.667
1.676
1.676
1.652
1.657
1.672
1.667
1.657
1.652
1.667
1.672
1.647
1.642
1.662
1.667
1.652
1.642
1.652
1.662
1.647
1.632
1.647
1.662
1.662
1.657
1.657
1.672
1.672
1.652
1.657
1.672
1.672
1.662
1.652
1.662
1.662
1.637
1.632
1.647
1.657
1.657
1.652
1.662
1.672
1.657
1.637
1.642
1.652
1.647
1.637
1.637
1.657
1.657
1.637
1.647
1.662
1.662
1.652
1.647
1.657
1.667
1.647
1.647
1.662
1.667
1.657
1.647
1.652
1.662
1.647
1.632
1.642
1.657
1.657
1.647
1.652
1.667
1.667
1.647
1.647
1.667
1.667
1.657
1.647
1.662
1.667
1.647
1.642
1.662
1.667
1.662
1.652
1.662
1.672
1.662
1.652
1.662
1.681
1.676
1.667
1.672
1.686
1.686
1.672
1.681
1.711
1.716
1.716
1.716
1.735
1.745
1.73
1.725
1.74
1.745
1.73
1.72
1.725
1.74
1.725
1.711
1.72
1.73
1.725
1.706
1.701
1.711
1.701
1.676
1.676
1.686
1.681
1.662
1.652
1.662
1.667
1.642
1.637
1.652
1.662
1.657
1.657
1.667
1.676
1.662
1.647
1.657
1.667
1.657
1.637
1.632
1.637
1.623
1.588
1.584
1.598
1.598
1.598
1.608
1.657
1.716
1.774
1.857
1.97
2.058
2.121
2.165
2.204
2.219
2.185
2.131
2.082
2.023
1.94
1.857
1.784
1.74
1.691
1.632
1.618
1.623
1.628
1.632
1.642
1.662
1.676
1.657
1.647
1.657
1.657
1.647
1.637
1.647
1.657
1.647
1.632
1.642
1.657
1.652
1.642
1.647
1.657
1.657
1.642
1.647
1.662
1.667
1.662
1.657
1.667
1.676
1.657
1.652
1.662
1.672
1.662
1.657
1.662
1.676
1.667
1.647
1.662
1.676
1.672
1.667
1.667
1.681
1.681
1.662
1.667
1.686
1.691
1.681
1.681
1.696
1.706
1.686
1.681
1.696
1.711
1.701
1.696
1.706
1.72
1.716
1.701
1.716
1.73
1.725
1.716
1.716
1.73
1.73
1.711
1.716
1.73
1.73
1.725
1.725
1.745
1.76
1.74
1.74
1.755
1.764
1.755
1.745
1.75
1.764
1.75
1.735
1.745
1.76
1.76
1.75
1.75
1.769
1.764
1.745
1.75
1.764
1.76
1.75
1.74
1.75
1.76
1.74
1.73
1.745
1.755
1.75
1.735
1.74
1.745
1.73
1.711
1.72
1.73
1.725
1.716
1.711
1.72
1.716
1.691
1.686
1.701
1.701
1.686
1.676
1.681
1.686
1.667
1.652
1.662
1.672
1.662
1.652
1.662
1.672
1.662
1.642
1.647
1.652
1.647
1.632
1.632
1.642
1.647
1.628
1.637
1.657
1.662
1.652
1.647
1.657
1.667
1.642
1.637
1.652
1.662
1.657
1.652
1.662
1.676
1.667
1.652
1.662
1.676
1.676
1.667
1.667
1.676
1.676
1.652
1.652
1.667
1.662
1.652
1.647
1.662
1.672
1.657
1.652
1.667
1.676
1.667
1.662
1.667
1.676
1.667
1.652
1.662
1.676
1.672
1.662
1.662
1.676
1.672
1.647
1.647
1.667
1.672
1.662
1.657
1.667
1.676
1.652
1.642
1.657
1.667
1.657
1.652
1.657
1.672
1.667
1.647
1.662
1.672
1.667
1.652
1.647
1.662
1.657
1.637
1.642
1.662
1.667
1.657
1.652
1.667
1.672
1.652
1.647
1.662
1.672
1.667
1.662
1.672
1.686
1.681
1.667
1.681
1.696
1.691
1.686
1.686
1.706
1.716
1.696
1.706
1.73
1.74
1.735
1.73
1.74
1.745
1.72
1.711
1.72
1.73
1.72
1.711
1.716
1.725
1.711
1.686
1.686
1.691
1.681
1.667
1.662
1.672
1.667
1.642
1.642
1.657
1.657
1.642
1.637
1.642
1.652
1.637
1.628
1.647
1.657
1.647
1.637
1.642
1.652
1.637
1.618
1.618
1.628
1.618
1.603
1.593
1.603
1.598
1.584
1.603
1.657
1.716
1.779
1.857
1.95
2.028
2.067
2.102
2.136
2.146
2.116
2.072
2.023
1.97
1.891
1.808
1.75
1.711
1.662
1.613
1.593
1.603
1.613
1.603
1.623
1.652
1.662
1.652
1.642
1.647
1.652
1.628
1.618
1.628
1.642
1.637
1.632
1.637
1.652
1.647
1.628
1.637
1.647
1.642
1.632
1.628
1.642
1.642
1.628
1.632
1.652
1.657
1.652
1.647
1.652
1.662
1.642
1.632
1.647
1.662
1.657
1.652
1.657
1.672
1.667
1.647
1.657
1.672
1.672
1.667
1.667
1.686
1.686
1.662
1.662
1.686
1.691
1.686
1.676
1.691
1.701
1.686
1.681
1.701
1.711
1.706
1.696
1.706
1.716
1.711
1.691
1.701
1.716
1.716
1.711
1.711
1.725
1.73
1.711
1.716
1.735
1.74
1.735
1.735
1.74
1.755
1.735
1.725
1.74
1.745
1.74
1.735
1.74
1.76
1.755
1.74
1.75
1.76
1.76
1.745
1.74
1.75
1.75
1.73
1.725
1.74
1.74
1.73
1.725
1.735
1.745
1.72
1.706
1.72
1.725
1.716
1.701
1.701
1.716
1.701
1.681
1.681
1.696
1.686
1.676
1.667
1.676
1.676
1.652
1.647
1.667
1.667
1.657
1.642
1.647
1.652
1.632
1.618
1.628
1.632
1.628
1.618
1.618
1.632
1.628
1.613
1.623
1.642
1.642
1.632
1.632
1.642
1.647
1.623
1.618
1.637
1.642
1.632
1.628
1.642
1.652
1.642
1.632
1.647
1.657
1.652
1.642
1.642
1.657
1.652
1.637
1.642
1.662
1.657
1.652
1.647
1.662
1.662
1.642
1.637
1.652
1.662
1.652
1.647
1.657
1.662
1.642
1.632
1.642
1.652
1.647
1.642
1.647
1.662
1.657
1.637
1.642
1.657
1.652
1.637
1.632
1.647
1.647
1.628
1.628
1.642
1.652
1.642
1.637
1.647
1.662
1.642
1.632
1.647
1.657
1.647
1.637
1.642
1.657
1.647
1.632
1.637
1.652
1.652
1.642
1.637
1.642
1.647
1.623
1.623
1.642
1.647
1.642
1.637
1.647
1.667
1.647
1.637
1.647
1.652
1.642
1.628
1.632
1.642
1.637
1.623
1.632
1.652
1.647
1.642
1.637
1.647
1.647
1.628
1.628
1.647
1.652
1.652
1.647
1.662
1.676
1.662
1.652
1.667
1.686
1.686
1.681
1.691
1.716
1.716
1.706
1.72
1.74
1.74
1.73
1.725
1.73
1.73
1.701
1.701
1.72
1.72
1.711
1.696
1.701
1.706
1.686
1.667
1.676
1.686
1.676
1.662
1.662
1.667
1.657
1.632
1.632
1.647
1.642
1.637
1.637
1.652
1.662
1.637
1.628
1.642
1.642
1.628
1.618
1.623
1.623
1.598
1.579
1.584
1.588
1.579
1.574
1.593
1.642
1.691
1.755
1.862
1.984
2.092
2.165
2.229
2.278
2.292
2.253
2.209
2.155
2.077
1.979
1.887
1.818
1.76
1.691
1.637
1.623
1.618
1.608
1.603
1.618
1.642
1.647
1.632
1.637
1.642
1.637
1.623
1.613
1.628
1.628
1.608
1.603
1.623
1.628
1.618
1.613
1.623
1.637
1.623
1.613
1.628
1.642
1.637
1.632
1.632
1.647
1.642
1.623
1.632
1.647
1.647
1.637
1.632
1.647
1.652
1.632
1.632
1.647
1.657
1.647
1.642
1.652
1.662
1.652
1.642
1.657
1.672
1.667
1.662
1.672
1.686
1.676
1.657
1.657
1.672
1.667
1.662
1.662
1.676
1.686
1.672
1.672
1.696
1.706
1.701
1.691
1.701
1.711
1.696
1.681
1.696
1.711
1.711
1.701
1.711
1.725
1.725
1.711
1.716
1.735
1.735
1.725
1.72
1.73
1.735
1.716
1.711
1.73
1.735
1.725
1.72
1.725
1.74
1.725
1.716
1.73
1.74
1.735
1.725
1.73
1.74
1.73
1.711
1.711
1.725
1.72
1.716
1.711
1.72
1.725
1.706
1.706
1.72
1.725
1.716
1.701
1.701
1.711
1.691
1.672
1.676
1.686
1.681
1.667
1.667
1.681
1.667
1.642
1.642
1.657
1.652
1.637
1.632
1.642
1.642
1.623
1.618
1.632
1.642
1.637
1.632
1.637
1.652
1.637
1.623
1.632
1.647
1.637
1.628
1.632
1.647
1.642
1.628
1.632
1.647
1.647
1.637
1.632
1.647
1.652
1.637
1.632
1.647
1.657
1.647
1.642
1.647
1.662
1.647
1.628
1.642
1.657
1.652
1.642
1.647
1.662
1.657
1.637
1.642
1.657
1.657
1.652
1.647
1.662
1.667
1.647
1.642
1.652
1.657
1.647
1.637
1.642
1.652
1.637
1.628
1.637
1.652
1.647
1.637
1.637
1.652
1.652
1.632
1.637
1.657
1.657
1.647
1.642
1.652
1.662
1.637
1.632
1.647
1.657
1.647
1.637
1.642
1.657
1.642
1.628
1.637
1.652
1.647
1.637
1.637
1.652
1.652
1.632
1.637
1.652
1.652
1.642
1.637
1.647
1.652
1.632
1.632
1.652
1.662
1.662
1.662
1.672
1.686
1.672
1.662
1.676
1.696
1.696
1.696
1.706
1.73
1.73
1.716
1.725
1.74
1.74
1.725
1.716
1.72
1.72
1.701
1.691
1.701
1.701
1.691
1.676
1.681
1.686
1.672
1.652
1.662
1.676
1.667
1.652
1.647
1.657
1.647
1.623
1.623
1.642
1.642
1.632
1.632
1.642
1.647
1.628
1.623
1.637
1.642
1.632
1.618
1.618
1.623
1.593
1.564
1.564
1.564
1.564
1.564
1.598
1.662
1.73
1.813
1.926
2.058
2.155
2.224
2.268
2.302
2.302
2.248
2.185
2.116
2.038
1.94
1.848
1.779
1.725
1.657
1.608
1.598
1.598
1.598
1.608
1.623
1.652
1.652
1.632
1.628
1.632
1.628
1.608
1.603
1.613
1.623
1.608
1.603
1.623
1.628
1.623
1.618
1.623
1.642
1.632
1.618
1.628
1.642
1.637
1.628
1.628
1.642
1.637
1.613
1.618
1.637
1.637
1.632
1.628
1.642
1.652
1.637
1.637
1.647
1.657
1.647
1.637
1.642
1.657
1.652
1.637
1.652
1.667
1.662
1.652
1.657
1.672
1.672
1.652
1.657
1.676
1.676
1.672
1.667
1.681
1.691
1.676
1.676
1.696
1.706
1.706
1.696
1.706
1.716
1.701
1.681
1.691
1.706
1.701
1.696
1.701
1.716
1.72
1.706
1.711
1.73
1.735
1.725
1.72
1.725
1.735
1.716
1.711
1.725
1.74
1.74
1.73
1.74
1.75
1.74
1.72
1.725
1.735
1.725
1.711
1.711
1.725
1.72
1.701
1.706
1.72
1.72
1.711
1.701
1.711
1.716
1.696
1.681
1.696
1.701
1.691
1.681
1.686
1.696
1.681
1.662
1.667
1.676
1.672
1.652
1.652
1.657
1.652
1.628
1.628
1.642
1.647
1.637
1.628
1.637
1.642
1.623
1.613
1.632
1.637
1.637
1.628
1.632
1.647
1.637
1.618
1.628
1.642
1.637
1.632
1.632
1.647
1.652
1.632
1.632
1.647
1.647
1.637
1.632
1.642
1.652
1.637
1.632
1.652
1.662
1.647
1.637
1.642
1.657
1.642
1.623
1.628
1.642
1.642
1.637
1.637
1.657
1.652
1.632
1.637
1.657
1.662
1.652
1.647
1.662
1.672
1.652
1.637
1.652
1.657
1.647
1.632
1.637
1.652
1.647
1.632
1.647
1.662
1.662
1.647
1.647
1.657
1.657
1.632
1.632
1.647
1.652
1.647
1.642
1.657
1.662
1.642
1.637
1.652
1.657
1.652
1.642
1.647
1.662
1.652
1.632
1.637
1.652
1.647
1.637
1.637
1.652
1.652
1.637
1.637
1.657
1.662
1.647
1.642
1.647
1.657
1.637
1.632
1.647
1.662
1.662
1.657
1.667
1.686
1.681
1.672
1.686
1.706
1.701
1.696
1.696
1.711
1.716
1.696
1.701
1.725
1.735
1.73
1.73
1.74
1.745
1.725
1.711
1.72
1.725
1.716
1.706
1.711
1.72
1.706
1.686
1.686
1.696
1.686
1.667
1.662
1.672
1.667
1.642
1.642
1.657
1.662
1.652
1.647
1.662
1.667
1.647
1.637
1.647
1.657
1.647
1.637
1.642
1.652
1.642
1.618
1.618
1.623
1.608
1.584
1.574
1.584
1.593
1.593
1.632
1.716
1.808
1.906
2.004
2.107
2.19
2.224
2.239
2.253
2.234
2.175
2.097
2.023
1.955
1.862
1.774
1.716
1.676
1.637
1.608
1.598
1.613
1.623
1.618
1.628
1.652
1.662
1.647
1.637
1.647
1.657
1.637
1.632
1.647
1.657
1.647
1.637
1.642
1.652
1.642
1.623
1.632
1.647
1.647
1.637
1.632
1.647
1.652
1.637
1.642
1.667
1.672
1.657
1.647
1.652
1.662
1.642
1.632
1.647
1.657
1.657
1.652
1.662
1.676
1.672
1.657
1.667
1.686
1.686
1.676
1.676
1.691
1.691
1.672
1.672
1.691
1.691
1.691
1.686
1.701
1.711
1.691
1.681
1.696
1.706
1.701
1.696
1.701
1.72
1.716
1.701
1.711
1.73
1.73
1.725
1.725
1.74
1.75
1.73
1.73
1.75
1.75
1.74
1.735
1.74
1.75
1.735
1.725
1.745
1.76
1.755
1.75
1.755
1.769
1.755
1.735
1.74
1.75
1.745
1.735
1.73
1.745
1.75
1.73
1.73
1.745
1.75
1.74
1.735
1.745
1.75
1.73
1.716
1.72
1.73
1.72
1.706
1.711
1.72
1.711
1.691
1.701
1.716
1.711
1.696
1.686
1.696
1.691
1.662
1.652
1.667
1.667
1.652
1.642
1.657
1.662
1.647
1.637
1.652
1.662
1.652
1.642
1.642
1.652
1.647
1.628
1.637
1.647
1.647
1.637
1.637
1.652
1.657
1.637
1.637
1.662
1.667
1.662
1.662
1.667
1.676
1.657
1.642
1.652
1.662
1.652
1.647
1.652
1.667
1.662
1.647
1.657
1.672
1.672
1.662
1.662
1.672
1.676
1.652
1.647
1.667
