Num1
1.716
1.701
1.686
1.686
1.691
1.662
1.642
1.642
1.647
1.642
1.637
1.642
1.662
1.657
1.642
1.652
1.667
1.662
1.647
1.642
1.652
1.652
1.628
1.632
1.662
1.672
1.667
1.662
1.667
1.672
1.647
1.637
1.647
1.652
1.642
1.632
1.642
1.662
1.652
1.632
1.642
1.657
1.657
1.647
1.647
1.672
1.691
1.691
1.716
1.764
1.799
1.818
1.843
1.882
1.916
1.916
1.911
1.916
1.901
1.857
1.789
1.72
1.657
1.584
1.51
1.471
1.452
1.427
1.413
1.413
1.437
1.447
1.437
1.447
1.476
1.5
1.515
1.53
1.564
1.598
1.598
1.608
1.637
1.662
1.667
1.667
1.672
1.691
1.681
1.657
1.662
1.681
1.681
1.672
1.672
1.686
1.691
1.667
1.667
1.686
1.691
1.681
1.676
1.691
1.706
1.691
1.681
1.696
1.701
1.691
1.681
1.686
1.706
1.696
1.672
1.676
1.701
1.701
1.696
1.696
1.72
1.73
1.716
1.716
1.735
1.735
1.72
1.706
1.711
1.725
1.711
1.701
1.72
1.735
1.735
1.725
1.725
1.74
1.73
1.711
1.72
1.735
1.735
1.725
1.725
1.74
1.75
1.735
1.74
1.769
1.784
1.779
1.769
1.779
1.789
1.764
1.74
1.75
1.755
1.745
1.74
1.75
1.779
1.789
1.779
1.794
1.818
1.828
1.828
1.823
1.838
1.838
1.808
1.799
1.818
1.823
1.818
1.813
1.823
1.838
1.818
1.804
1.813
1.818
1.804
1.789
1.779
1.789
1.784
1.76
1.76
1.764
1.755
1.735
1.725
1.735
1.735
1.706
1.701
1.716
1.716
1.706
1.691
1.696
1.701
1.681
1.657
1.662
1.662
1.647
1.632
1.632
1.652
1.652
1.637
1.642
1.662
1.667
1.657
1.647
1.657
1.652
1.628
1.623
1.642
1.652
1.647
1.637
1.647
1.662
1.642
1.628
1.642
1.652
1.647
1.632
1.637
1.652
1.647
1.637
1.642
1.657
1.652
1.637
1.632
1.642
1.642
1.618
1.613
1.628
1.628
1.618
1.613
1.623
1.642
1.632
1.623
1.637
1.657
1.657
1.652
1.657
1.672
1.662
1.637
1.637
1.652
1.647
1.637
1.637
1.652
1.657
1.632
1.632
1.642
1.642
1.628
1.623
1.632
1.652
1.637
1.628
1.652
1.672
1.676
1.667
1.662
1.676
1.667
1.642
1.647
1.662
1.662
1.652
1.647
1.657
1.667
1.647
1.647
1.662
1.667
1.652
1.642
1.647
1.662
1.647
1.632
1.647
1.667
1.667
1.657
1.657
1.672
1.662
1.642
1.647
1.662
1.662
1.652
1.647
1.662
1.667
1.647
1.642
1.657
1.662
1.657
1.652
1.667
1.676
1.662
1.642
1.657
1.672
1.667
1.657
1.657
1.672
1.667
1.647
1.647
1.667
1.672
1.662
1.662
1.672
1.672
1.647
1.642
1.662
1.667
1.657
1.652
1.667
1.686
1.672
1.652
1.657
1.662
1.652
1.642
1.647
1.672
1.676
1.662
1.672
1.696
1.701
1.696
1.691
1.701
1.701
1.676
1.667
1.681
1.681
1.676
1.676
1.696
1.72
1.711
1.701
1.716
1.73
1.725
1.711
1.706
1.716
1.711
1.691
1.701
1.72
1.72
1.711
1.711
1.72
1.72
1.696
1.691
1.711
1.72
1.706
1.686
1.686
1.691
1.667
1.647
1.657
1.662
1.657
1.647
1.657
1.676
1.681
1.662
1.667
1.686
1.681
1.667
1.652
1.652
1.652
1.628
1.618
1.637
1.642
1.637
1.637
1.647
1.667
1.652
1.637
1.652
1.667
1.667
1.662
1.667
1.681
1.676
1.657
1.662
1.672
1.672
1.662
1.662
1.686
1.711
1.706
1.72
1.76
1.799
1.818
1.838
1.872
1.911
1.921
1.921
1.931
1.931
1.896
1.838
1.769
1.706
1.628
1.535
1.481
1.447
1.417
1.393
1.388
1.413
1.437
1.442
1.457
1.486
1.51
1.52
1.53
1.554
1.584
1.588
1.598
1.628
1.667
1.681
1.681
1.691
1.716
1.716
1.696
1.696
1.711
1.711
1.706
1.696
1.711
1.711
1.691
1.686
1.711
1.72
1.72
1.716
1.72
1.735
1.716
1.696
1.711
1.725
1.72
1.711
1.711
1.725
1.72
1.696
1.701
1.716
1.716
1.711
1.706
1.725
1.74
1.725
1.725
1.745
1.755
1.745
1.735
1.735
1.75
1.735
1.716
1.72
1.735
1.73
1.725
1.73
1.75
1.75
1.73
1.74
1.755
1.755
1.745
1.74
1.75
1.76
1.745
1.75
1.774
1.784
1.784
1.779
1.789
1.808
1.799
1.789
1.804
1.823
1.823
1.808
1.808
1.823
1.818
1.794
1.789
1.808
1.808
1.804
1.808
1.823
1.833
1.813
1.808
1.823
1.833
1.838
1.828
1.833
1.848
1.838
1.828
1.833
1.843
1.838
1.828
1.828
1.838
1.828
1.799
1.794
1.808
1.808
1.789
1.769
1.764
1.76
1.73
1.711
1.716
1.716
1.701
1.686
1.691
1.711
1.696
1.676
1.681
1.691
1.681
1.672
1.672
1.686
1.691
1.672
1.672
1.681
1.676
1.657
1.652
1.662
1.667
1.642
1.632
1.652
1.662
1.657
1.647
1.657
1.672
1.662
1.642
1.657
1.676
1.672
1.657
1.652
1.667
1.657
1.628
1.628
1.642
1.647
1.642
1.642
1.662
1.676
1.657
1.642
1.662
1.667
1.657
1.642
1.642
1.657
1.647
1.637
1.647
1.672
1.672
1.662
1.662
1.681
1.681
1.662
1.662
1.672
1.667
1.647
1.642
1.652
1.662
1.642
1.637
1.652
1.662
1.662
1.657
1.667
1.686
1.681
1.667
1.681
1.696
1.691
1.676
1.662
1.667
1.652
1.628
1.632
1.657
1.667
1.672
1.672
1.686
1.696
1.672
1.657
1.662
1.667
1.657
1.647
1.652
1.667
1.657
1.637
1.652
1.667
1.667
1.657
1.662
1.686
1.696
1.676
1.676
1.691
1.691
1.672
1.662
1.667
1.676
1.657
1.647
1.662
1.672
1.667
1.657
1.662
1.686
1.681
1.672
1.681
1.701
1.691
1.676
1.667
1.676
1.667
1.637
1.637
1.662
1.672
1.667
1.667
1.681
1.691
1.667
1.647
1.662
1.676
1.676
1.667
1.676
1.696
1.696
1.681
1.691
1.701
1.691
1.676
1.672
1.686
1.681
1.657
1.662
1.681
1.696
1.706
1.716
1.74
1.76
1.75
1.735
1.74
1.74
1.725
1.701
1.696
1.701
1.696
1.676
1.691
1.706
1.706
1.701
1.701
1.72
1.716
1.686
1.676
1.686
1.681
1.662
1.652
1.652
1.662
1.642
1.637
1.657
1.672
1.672
1.662
1.667
1.676
1.667
1.647
1.662
1.676
1.676
1.662
1.657
1.662
1.657
1.632
1.632
1.657
1.667
1.662
1.652
1.662
1.672
1.647
1.637
1.647
1.662
1.652
1.642
1.652
1.672
1.676
1.667
1.686
1.711
1.72
1.725
1.745
1.784
1.808
1.813
1.848
1.887
1.911
1.916
1.911
1.911
1.891
1.823
1.74
1.681
1.618
1.544
1.486
1.447
1.432
1.408
1.388
1.403
1.427
1.437
1.447
1.466
1.5
1.525
1.52
1.544
1.584
1.608
1.618
1.632
1.662
1.686
1.676
1.672
1.691
1.711
1.706
1.696
1.696
1.711
1.701
1.681
1.691
1.711
1.706
1.696
1.696
1.711
1.711
1.691
1.691
1.711
1.711
1.701
1.686
1.696
1.706
1.691
1.676
1.691
1.706
1.706
1.696
1.706
1.725
1.725
1.711
1.72
1.735
1.735
1.725
1.72
1.735
1.735
1.716
1.72
1.74
1.75
1.745
1.745
1.76
1.769
1.755
1.74
1.755
1.764
1.76
1.75
1.75
1.76
1.745
1.725
1.74
1.76
1.764
1.764
1.769
1.784
1.799
1.784
1.784
1.804
1.813
1.804
1.799
1.804
1.818
1.799
1.789
1.804
1.818
1.813
1.808
1.818
1.843
1.843
1.828
1.833
1.843
1.833
1.818
1.813
1.833
1.838
1.828
1.833
1.857
1.867
1.862
1.852
1.852
1.848
1.818
1.794
1.799
1.799
1.789
1.774
1.774
1.789
1.779
1.76
1.76
1.76
1.74
1.716
1.701
1.706
1.706
1.676
1.676
1.691
1.696
1.681
1.672
1.676
1.681
1.657
1.637
1.647
1.662
1.652
1.642
1.647
1.662
1.657
1.642
1.652
1.672
1.672
1.662
1.662
1.681
1.686
1.662
1.647
1.657
1.652
1.637
1.628
1.632
1.647
1.632
1.623
1.642
1.657
1.662
1.657
1.662
1.672
1.657
1.628
1.632
1.647
1.647
1.637
1.637
1.652
1.652
1.628
1.628
1.642
1.647
1.642
1.632
1.642
1.652
1.637
1.632
1.647
1.657
1.642
1.632
1.632
1.647
1.642
1.628
1.637
1.657
1.662
1.652
1.647
1.662
1.672
1.652
1.642
1.662
1.672
1.667
1.667
1.672
1.681
1.662
1.642
1.647
1.657
1.652
1.647
1.652
1.676
1.667
1.647
1.652
1.672
1.667
1.652
1.642
1.652
1.657
1.647
1.647
1.672
1.681
1.676
1.672
1.681
1.696
1.676
1.657
1.672
1.681
1.672
1.662
1.667
1.686
1.681
1.667
1.672
1.686
1.681
1.672
1.672
1.691
1.701
1.681
1.681
1.706
1.716
1.711
1.701
1.711
1.716
1.696
1.676
1.691
1.701
1.701
1.691
1.696
1.72
1.716
1.701
1.711
1.725
1.725
1.711
1.701
1.716
1.716
1.691
1.681
1.691
1.691
1.676
1.672
1.676
1.686
1.662
1.642
1.657
1.667
1.657
1.647
1.652
1.667
1.662
1.642
1.647
1.667
1.667
1.657
1.652
1.667
1.667
1.647
1.642
1.657
1.657
1.642
1.632
1.642
1.657
1.647
1.642
1.667
1.686
1.681
1.667
1.667
1.672
1.662
1.632
1.628
1.637
1.637
1.632
1.637
1.662
1.681
1.672
1.691
1.73
1.76
1.779
1.799
1.833
1.872
1.867
1.857
1.872
1.877
1.848
1.799
1.745
1.701
1.632
1.554
1.51
1.481
1.447
1.422
1.413
1.432
1.457
1.447
1.461
1.486
1.51
1.515
1.53
1.559
1.593
1.598
1.598
1.628
1.657
1.667
1.667
1.672
1.686
1.681
1.662
1.667
1.681
1.686
1.676
1.676
1.696
1.706
1.691
1.686
1.706
1.711
1.701
1.696
1.701
1.716
1.706
1.691
1.711
1.725
1.72
1.711
1.706
1.72
1.711
1.686
1.681
1.696
1.696
1.696
1.696
1.716
1.725
1.706
1.696
1.716
1.72
1.711
1.701
1.706
1.72
1.711
1.701
1.72
1.735
1.74
1.73
1.735
1.755
1.755
1.73
1.735
1.75
1.755
1.75
1.755
1.774
1.784
1.764
1.764
1.784
1.794
1.784
1.774
1.784
1.799
1.789
1.779
1.794
1.813
1.804
1.794
1.799
1.818
1.823
1.813
1.823
1.843
1.843
1.833
1.828
1.838
1.843
1.823
1.818
1.838
1.848
1.848
1.838
1.838
1.843
1.828
1.808
1.818
1.833
1.828
1.818
1.818
1.828
1.808
1.774
1.769
1.774
1.764
1.745
1.73
1.74
1.75
1.725
1.716
1.725
1.725
1.716
1.696
1.696
1.701
1.686
1.667
1.676
1.681
1.667
1.652
1.647
1.657
1.652
1.628
1.628
1.642
1.642
1.637
1.632
1.652
1.662
1.647
1.642
1.657
1.662
1.647
1.637
1.637
1.652
1.637
1.628
1.637
1.652
1.647
1.642
1.637
1.647
1.642
1.618
1.623
1.647
1.657
1.652
1.652
1.667
1.676
1.647
1.632
1.637
1.637
1.628
1.618
1.628
1.642
1.628
1.613
1.628
1.652
1.657
1.647
1.642
1.657
1.652
1.628
1.623
1.637
1.642
1.632
1.632
1.647
1.662
1.647
1.642
1.662
1.667
1.657
1.647
1.652
1.672
1.672
1.657
1.667
1.676
1.667
1.657
1.657
1.672
1.672
1.652
1.657
1.681
1.681
1.672
1.667
1.672
1.681
1.657
1.652
1.667
1.672
1.667
1.662
1.667
1.686
1.672
1.647
1.657
1.681
1.681
1.672
1.672
1.686
1.681
1.657
1.657
1.672
1.672
1.662
1.657
1.667
1.672
1.647
1.642
1.652
1.662
1.657
1.652
1.672
1.696
1.691
1.681
1.696
1.711
1.706
1.691
1.686
1.701
1.701
1.681
1.681
1.696
1.701
1.701
1.696
1.711
1.72
1.706
1.696
1.716
1.72
1.711
1.701
1.701
1.706
1.696
1.672
1.681
1.686
1.676
1.662
1.657
1.667
1.667
1.647
1.652
1.672
1.672
1.672
1.662
1.667
1.667
1.637
1.623
1.637
1.647
1.637
1.623
1.628
1.642
1.632
1.618
1.628
1.642
1.642
1.637
1.647
1.667
1.667
1.642
1.637
1.652
1.652
1.642
1.637
1.652
1.672
1.662
1.662
1.681
1.691
1.696
1.691
1.711
1.74
1.755
1.769
1.808
1.857
1.887
1.901
1.911
1.921
1.896
1.833
1.774
1.725
1.662
1.588
1.53
1.491
1.466
1.422
1.398
1.413
1.432
1.437
1.437
1.457
1.486
1.5
1.51
1.544
1.588
1.603
1.613
1.628
1.647
1.657
1.637
1.642
1.662
1.667
1.662
1.662
1.676
1.696
1.681
1.676
1.691
1.701
1.696
1.696
1.701
1.716
1.701
1.681
1.686
1.696
1.686
1.667
1.667
1.681
1.691
1.672
1.681
1.711
1.72
1.716
1.716
1.73
1.74
1.72
1.706
1.716
1.716
1.701
1.686
1.691
1.706
1.696
1.676
1.696
1.72
1.725
1.72
1.72
1.735
1.74
1.72
1.72
1.745
1.75
1.74
1.735
1.745
1.75
1.725
1.711
1.725
1.735
1.73
1.725
1.745
1.779
1.779
1.764
1.769
1.784
1.774
1.76
1.76
1.774
1.779
1.769
1.774
1.799
1.804
1.794
1.789
1.789
1.794
1.774
1.769
1.794
1.813
1.813
1.808
1.818
1.833
1.823
1.799
1.804
1.818
1.813
1.804
1.799
1.813
1.804
1.779
1.774
1.789
1.789
1.774
1.755
1.755
1.755
1.725
1.706
1.716
1.716
1.706
1.696
1.706
1.72
1.711
1.686
1.686
1.686
1.667
1.647
1.632
1.632
1.628
1.618
1.628
1.652
1.652
1.632
1.628
1.632
1.647
1.637
1.632
1.652
1.672
1.667
1.657
1.647
1.647
1.623
1.593
1.593
1.608
1.613
1.613
1.618
1.637
1.642
1.618
1.618
1.628
1.632
1.623
1.623
1.637
1.652
1.632
1.618
1.632
1.647
1.642
1.632
1.632
1.652
1.642
1.623
1.632
1.647
1.637
1.632
1.632
1.652
1.657
1.637
1.632
1.647
1.647
1.637
1.632
1.642
1.657
1.642
1.637
1.657
1.672
1.662
1.647
1.647
1.657
1.642
1.628
1.637
1.652
1.652
1.647
1.647
1.657
1.657
1.632
1.628
1.642
1.647
1.652
1.662
1.676
1.686
1.662
1.637
1.642
1.642
1.632
1.623
1.618
1.637
1.632
1.628
1.647
1.676
1.686
1.672
1.662
1.672
1.676
1.657
1.657
1.667
1.667
1.652
1.647
1.657
1.672
1.657
1.647
1.662
1.676
1.672
1.667
1.672
1.686
1.672
1.652
1.652
1.667
1.662
1.652
1.647
1.667
1.672
1.657
1.662
1.676
1.676
1.657
1.652
1.672
1.696
1.686
1.686
1.706
1.725
1.735
1.735
1.735
1.745
1.725
1.696
1.696
1.711
1.706
1.691
1.686
1.696
1.696
1.681
1.691
1.716
1.72
1.716
1.701
1.706
1.711
1.691
1.672
1.676
1.681
1.667
1.652
1.652
1.667
1.662
1.642
1.652
1.657
1.647
1.632
1.632
1.652
1.662
1.647
1.652
1.667
1.676
1.667
1.657
1.667
1.676
1.652
1.632
1.637
1.647
1.647
1.642
1.642
1.657
1.652
1.642
1.652
1.676
1.686
1.686
1.686
1.696
1.691
1.667
1.662
1.676
1.686
1.691
1.701
1.74
1.794
1.813
1.838
1.882
1.916
1.921
1.911
1.901
1.887
1.828
1.745
1.676
1.628
1.569
1.515
1.471
1.452
1.437
1.408
1.403
1.427
1.442
1.447
1.461
1.486
1.525
1.54
1.559
1.603
1.637
1.647
1.647
1.657
1.681
1.681
1.667
1.681
1.701
1.706
1.696
1.686
1.691
1.681
1.652
1.647
1.667
1.676
1.676
1.681
1.701
1.72
1.711
1.701
1.711
1.711
1.696
1.681
1.681
1.696
1.696
1.686
1.701
1.72
1.72
1.711
1.701
1.711
1.706
1.676
1.672
1.696
1.711
1.706
1.706
1.72
1.74
1.725
1.716
1.73
1.74
1.735
1.716
1.716
1.735
1.735
1.716
1.716
1.735
1.73
1.72
1.72
1.735
1.745
1.725
1.725
1.745
1.755
1.755
1.755
1.769
1.779
1.76
1.745
1.76
1.774
1.774
1.769
1.769
1.794
1.794
1.784
1.784
1.804
1.808
1.808
1.808
1.828
1.838
1.818
1.813
1.833
1.833
1.818
1.804
1.808
1.813
1.804
1.789
1.808
1.818
1.818
1.804
1.808
1.823
1.818
1.799
1.794
1.804
1.799
1.779
1.764
1.774
1.774
1.745
1.73
1.745
1.74
1.72
1.706
1.706
1.706
1.681
1.657
1.672
1.681
1.681
1.667
1.667
1.672
1.662
1.637
1.637
1.647
1.647
1.637
1.642
1.662
1.672
1.657
1.657
1.676
1.676
1.662
1.652
1.657
1.657
1.632
1.613
1.623
1.632
1.628
1.623
1.632
1.652
1.652
1.637
1.642
1.657
1.647
1.628
1.623
1.637
1.642
1.623
1.623
1.647
1.662
1.657
1.652
1.657
1.667
1.652
1.632
1.642
1.657
1.652
1.642
1.642
1.657
1.647
1.628
1.632
1.647
1.652
1.642
1.642
1.652
1.652
1.628
1.623
1.642
1.652
1.642
1.632
1.647
1.662
1.652
1.637
1.647
1.662
1.657
1.647
1.647
1.662
1.657
1.637
1.637
1.657
1.662
1.657
1.662
1.676
1.686
1.667
1.652
1.662
1.657
1.642
1.632
1.642
1.662
1.647
1.632
1.647
1.667
1.662
1.652
1.652
1.667
1.662
1.647
1.652
1.672
1.672
1.657
1.652
1.662
1.667
1.647
1.642
1.662
1.672
1.662
1.652
1.662
1.676
1.662
1.652
1.662
1.676
1.667
1.657
1.652
1.667
1.662
1.642
1.652
1.676
1.681
1.676
1.676
1.696
1.706
1.686
1.681
1.696
1.706
1.706
1.701
1.711
1.725
1.72
1.706
1.72
1.735
1.73
1.72
1.72
1.73
1.72
1.691
1.686
1.691
1.676
1.657
1.642
1.647
1.647
1.623
1.613
1.632
1.637
1.637
1.632
1.647
1.667
1.662
1.652
1.667
1.676
1.662
1.642
1.632
1.642
1.642
1.628
1.632
1.657
1.662
1.657
1.652
1.662
1.667
1.647
1.652
1.676
1.691
1.681
1.662
1.662
1.662
1.632
1.608
1.613
1.623
1.628
1.637
1.657
1.696
1.72
1.72
1.755
1.799
1.828
1.852
1.882
1.921
1.945
1.921
1.896
1.877
1.843
1.774
1.691
1.618
1.559
1.491
1.437
1.417
1.413
1.408
1.408
1.427
1.466
1.491
1.491
1.51
1.54
1.549
1.554
1.569
1.598
1.623
1.618
1.628
1.657
1.676
1.676
1.672
1.676
1.686
1.667
1.647
1.662
1.676
1.676
1.676
1.681
1.706
1.706
1.686
1.686
1.701
1.701
1.691
1.686
1.706
1.72
1.701
1.691
1.706
1.716
1.706
1.696
1.696
1.706
1.696
1.686
1.701
1.716
1.716
1.706
1.701
1.716
1.716
1.696
1.701
1.725
1.725
1.72
1.716
1.73
1.74
1.72
1.716
1.73
1.745
1.735
1.72
1.73
1.75
1.74
1.725
1.745
1.764
1.76
1.75
1.745
1.76
1.755
1.725
1.73
1.745
1.755
1.75
1.755
1.779
1.794
1.779
1.779
1.799
1.813
1.808
1.808
1.808
1.823
1.804
1.794
1.808
1.833
1.833
1.833
1.838
1.857
1.857
1.833
1.833
1.848
1.843
1.828
1.813
1.823
1.833
1.813
1.804
1.808
1.804
1.794
1.789
1.799
1.808
1.789
1.76
1.764
1.774
1.769
1.745
1.73
1.735
1.72
1.696
1.696
1.706
1.706
1.691
1.676
1.676
1.672
1.642
1.623
1.628
1.632
1.632
1.628
1.637
1.662
1.652
1.642
1.652
1.667
1.657
1.637
1.628
1.642
1.647
1.628
1.637
1.662
1.667
1.662
1.652
1.667
1.681
1.662
1.647
1.657
1.652
1.642
1.632
1.642
1.657
1.642
1.623
1.637
1.657
1.657
1.647
1.652
1.662
1.657
1.623
1.613
1.632
1.637
1.628
1.623
1.632
1.652
1.637
1.637
1.652
1.657
1.652
1.637
1.642
1.647
1.637
1.623
1.637
1.652
1.652
1.642
1.642
1.662
1.667
1.647
1.652
1.667
1.672
1.667
1.667
1.676
1.691
1.672
1.662
1.681
1.686
1.676
1.667
1.672
1.686
1.672
1.657
1.667
1.686
1.686
1.676
1.672
1.691
1.686
1.662
1.657
1.672
1.676
1.667
1.662
1.681
1.696
1.676
1.672
1.681
1.681
1.667
1.657
1.662
1.686
1.681
1.672
1.686
1.711
1.711
1.706
1.701
1.706
1.701
1.672
1.672
1.686
1.691
1.681
1.681
1.701
1.711
1.696
1.691
1.706
1.716
1.711
1.696
1.701
1.716
1.701
1.681
1.691
1.701
1.696
1.686
1.676
1.676
1.667
1.637
1.632
1.647
1.647
1.637
1.637
1.657
1.676
1.662
1.652
1.657
1.652
1.637
1.628
1.632
1.652
1.647
1.632
1.642
1.662
1.657
1.647
1.642
1.657
1.652
1.628
1.632
1.652
1.657
1.647
1.637
1.642
1.647
1.628
1.618
1.642
1.657
1.657
1.652
1.657
1.676
1.676
1.676
1.701
1.74
1.764
1.789
1.823
1.872
1.906
1.906
1.916
1.921
1.896
1.838
1.774
1.72
1.667
1.588
1.535
1.51
1.486
1.452
1.432
1.437
1.457
1.442
1.427
1.442
1.481
1.5
1.52
1.544
1.588
1.608
1.598
1.608
1.637
1.647
1.642
1.642
1.657
1.672
1.662
1.657
1.681
1.696
1.691
1.681
1.686
1.701
1.691
1.672
1.681
1.706
1.701
1.696
1.691
1.706
1.706
1.681
1.681
1.701
1.706
1.701
1.701
1.72
1.73
1.701
1.686
1.701
1.716
1.725
1.725
1.73
1.74
1.725
1.701
1.706
1.716
1.701
1.681
1.676
1.696
1.706
1.696
1.706
1.725
1.735
1.735
1.73
1.74
1.75
1.73
1.716
1.73
1.73
1.725
1.716
1.725
1.745
1.745
1.735
1.75
1.769
1.769
1.76
1.76
1.779
1.789
1.774
1.784
1.799
1.804
1.799
1.794
1.813
1.833
1.818
1.808
1.823
1.843
1.843
1.838
1.838
1.848
1.838
1.818
1.823
1.838
1.833
1.818
1.808
1.813
1.813
1.794
1.799
1.818
1.823
1.813
1.808
1.818
1.823
1.789
1.76
1.755
1.75
1.74
1.72
1.72
1.735
1.73
1.711
1.716
1.72
1.711
1.686
1.672
1.672
1.667
1.637
1.632
1.657
1.667
1.667
1.667
1.686
1.706
1.686
1.667
1.667
1.662
1.637
1.623
1.618
1.632
1.623
1.608
1.632
1.657
1.667
1.662
1.657
1.667
1.667
1.642
1.632
1.647
1.647
1.642
1.637
1.652
1.657
1.637
1.618
1.628
1.642
1.642
1.642
1.647
1.667
1.657
1.642
1.652
1.672
1.672
1.662
1.652
1.662
1.662
1.637
1.632
1.642
1.637
1.623
1.613
1.632
1.652
1.647
1.642
1.657
1.667
1.657
1.647
1.647
1.667
1.662
1.647
1.657
1.676
1.672
1.662
1.647
1.657
1.657
1.637
1.642
1.662
1.667
1.662
1.657
1.672
1.691
1.667
1.657
1.672
1.686
1.681
1.667
1.662
1.676
1.667
1.642
1.647
1.657
1.657
1.657
1.657
1.676
1.681
1.657
1.652
1.672
1.676
1.667
1.652
1.657
1.667
1.652
1.642
1.652
1.667
1.667
1.657
1.667
1.681
1.676
1.657
1.662
1.676
1.672
1.667
1.667
1.686
1.696
1.672
1.662
1.672
1.672
1.657
1.652
1.676
1.696
1.681
1.667
1.686
1.706
1.701
1.681
1.672
1.672
1.662
1.652
1.676
1.711
1.72
1.716
1.72
1.735
1.74
1.711
1.701
1.711
1.716
1.706
1.696
1.706
1.716
1.701
1.691
1.706
1.716
1.711
1.701
1.696
1.706
1.701
1.672
1.672
1.676
1.667
1.652
1.647
1.657
1.662
1.642
1.642
1.662
1.672
1.667
1.662
1.672
1.681
1.662
1.647
1.662
1.672
1.662
1.652
1.652
1.662
1.652
1.632
1.637
1.652
1.652
1.642
1.642
1.662
1.676
1.662
1.662
1.681
1.681
1.672
1.662
1.667
1.672
1.657
1.647
1.662
1.676
1.686
1.701
1.73
1.774
1.794
1.794
1.823
1.867
1.891
1.906
1.906
1.911
1.896
1.833
1.774
1.73
1.667
1.593
1.53
1.491
1.476
1.442
1.422
1.442
1.471
1.481
1.486
1.496
1.515
1.525
1.52
1.544
1.579
1.608
1.623
1.642
1.667
1.691
1.676
1.676
1.696
1.701
1.681
1.672
1.681
1.701
1.686
1.676
1.691
1.701
1.691
1.676
1.676
1.691
1.691
1.676
1.681
1.701
1.706
1.701
1.696
1.706
1.706
1.686
1.681
1.701
1.711
1.706
1.701
1.706
1.711
1.696
1.676
1.691
1.706
1.706
1.701
1.706
1.725
1.73
1.711
1.72
1.735
1.73
1.711
1.701
1.711
1.716
1.696
1.691
1.711
1.725
1.725
1.725
1.745
1.76
1.745
1.73
1.745
1.755
1.755
1.745
1.745
1.76
1.755
1.735
1.735
1.755
1.76
1.755
1.764
1.789
1.808
1.789
1.784
1.799
1.804
1.789
1.779
1.784
1.799
1.789
1.779
1.794
1.808
1.808
1.799
1.799
1.818
1.813
1.799
1.804
1.823
1.828
1.818
1.813
1.818
1.828
1.808
1.804
1.818
1.818
1.804
1.784
1.779
1.784
1.76
1.74
1.75
1.769
1.764
1.75
1.74
1.745
1.725
1.686
1.672
1.667
1.652
1.637
1.632
1.647
1.657
1.642
1.637
1.657
1.667
1.662
1.647
1.652
1.667
1.657
1.642
1.657
1.667
1.657
1.652
1.652
1.662
1.657
1.632
1.632
1.647
1.647
1.642
1.637
1.657
1.667
1.642
1.637
1.652
1.657
1.647
1.642
1.652
1.667
1.652
1.637
1.652
1.667
1.657
1.642
1.642
1.657
1.652
1.628
1.628
1.642
1.642
1.637
1.628
1.637
1.647
1.632
1.632
1.652
1.662
1.662
1.657
1.672
1.681
1.657
1.632
1.632
1.637
1.623
1.618
1.628
1.652
1.662
1.652
1.667
1.686
1.686
1.672
1.662
1.662
1.662
1.632
1.628
1.647
1.662
1.667
1.662
1.662
1.672
1.657
1.637
1.642
1.647
1.632
1.623
1.628
1.652
1.657
1.642
1.652
1.676
1.681
1.667
1.657
1.667
1.672
1.652
1.642
1.657
1.662
1.657
1.647
1.652
1.667
1.657
1.647
1.662
1.676
1.672
1.662
1.657
1.672
1.667
1.647
1.652
1.676
1.676
1.672
1.667
1.681
1.691
1.672
1.667
1.681
1.691
1.676
1.657
1.652
1.662
1.642
1.623
1.628
1.642
1.642
1.647
1.667
1.691
1.696
1.676
1.676
1.681
1.676
1.657
1.647
1.657
1.672
1.662
1.662
1.686
1.706
1.706
1.701
1.711
1.72
1.706
1.686
1.696
1.711
1.711
1.701
1.696
1.711
1.711
1.686
1.686
1.706
1.711
1.711
1.706
1.716
1.72
1.696
1.686
1.701
1.706
1.696
1.681
1.681
1.686
1.662
1.637
1.637
1.652
1.647
1.637
1.632
1.652
1.662
1.647
1.647
1.662
1.657
1.637
1.628
1.642
1.652
1.632
1.628
1.647
1.662
1.657
1.647
1.652
1.667
1.652
1.632
1.642
1.652
1.652
1.642
1.642
1.657
1.662
1.647
1.652
1.672
1.686
1.696
1.716
1.75
1.789
1.799
1.818
1.867
1.901
1.911
1.921
1.926
1.935
1.906
1.862
1.818
1.76
1.672
1.584
1.52
1.481
1.442
1.393
1.388
1.413
1.427
1.432
1.442
1.476
1.505
1.505
1.52
1.564
1.593
1.613
1.623
1.642
1.667
1.657
1.642
1.662
1.681
1.681
1.672
1.672
1.691
1.691
1.672
1.676
1.691
1.691
1.681
1.676
1.691
1.701
1.676
1.667
1.686
1.701
1.706
1.706
1.711
1.72
1.701
1.681
1.686
1.701
1.701
1.696
1.706
1.725
1.73
1.716
1.725
1.74
1.74
1.725
1.716
1.716
1.716
1.686
1.672
1.691
1.706
1.706
1.701
1.716
1.74
1.73
1.716
1.735
1.75
1.74
1.725
1.72
1.735
1.745
1.73
1.74
1.764
1.769
1.76
1.755
1.769
1.779
1.764
1.755
1.769
1.779
1.769
1.764
1.774
1.794
1.784
1.76
1.769
1.789
1.794
1.794
1.808
1.838
1.848
1.838
1.838
1.852
1.848
1.828
1.804
1.804
1.799
1.774
1.769
1.799
1.818
1.823
1.818
1.833
1.848
1.838
1.818
1.818
1.818
1.804
1.779
1.764
1.774
1.769
1.75
1.75
1.76
1.755
1.74
1.725
1.725
1.725
1.691
1.672
1.676
1.681
1.681
1.672
1.672
1.681
1.667
1.642
1.647
1.657
1.652
1.637
1.632
1.647
1.657
1.637
1.637
1.652
1.657
1.652
1.652
1.667
1.676
1.657
1.642
1.657
1.662
1.657
1.647
1.652
1.662
1.652
1.632
1.637
1.647
1.647
1.642
1.642
1.667
1.667
1.647
1.642
1.657
1.652
1.637
1.628
1.632
1.642
1.623
1.623
1.642
1.662
1.662
1.662
1.662
1.672
1.657
1.632
1.642
1.657
1.657
1.647
1.642
1.652
1.657
1.632
1.623
1.637
1.647
1.642
1.637
1.647
1.652
1.637
1.628
1.642
1.647
1.637
1.628
1.632
1.652
1.647
1.637
1.647
1.662
1.657
1.647
1.647
1.657
1.657
1.637
1.637
1.662
1.662
1.657
1.652
1.667
1.681
1.667
1.657
1.672
1.681
1.672
1.657
1.657
1.667
1.657
1.637
1.642
1.662
1.662
1.652
1.657
1.676
1.681
1.657
1.647
1.662
1.667
1.662
1.652
1.657
1.662
1.637
1.632
1.647
1.662
1.657
1.657
1.667
1.691
1.691
1.676
1.686
1.701
1.696
1.686
1.686
1.701
1.701
1.676
1.672
1.681
1.676
1.667
1.657
1.667
1.681
1.667
1.667
1.696
1.711
1.706
1.691
1.691
1.706
1.696
1.672
1.681
1.696
1.696
1.691
1.691
1.706
1.706
1.676
1.676
1.691
1.691
1.681
1.672
1.672
1.676
1.647
1.628
1.637
1.652
1.647
1.642
1.652
1.672
1.672
1.657
1.667
1.676
1.672
1.657
1.652
1.662
1.662
1.637
1.632
1.652
1.652
1.642
1.632
1.647
1.667
1.667
1.667
1.681
1.686
1.672
1.657
1.647
1.652
1.628
1.608
1.623
1.642
1.652
1.652
1.657
1.672
1.672
1.647
1.642
1.672
1.691
1.706
1.735
1.779
1.823
1.843
1.862
1.896
1.916
1.906
1.882
1.852
1.813
1.745
1.667
1.613
1.569
1.515
1.466
1.437
1.432
1.427
1.408
1.417
1.447
1.461
1.471
1.481
1.51
1.544
1.549
1.554
1.588
1.613
1.628
1.632
1.647
1.676
1.681
1.672
1.686
1.706
1.706
1.696
1.691
1.696
1.691
1.667
1.662
1.672
1.676
1.662
1.662
1.676
1.701
1.691
1.686
1.706
1.72
1.711
1.701
1.711
1.725
1.716
1.696
1.696
1.706
1.696
1.686
1.686
1.696
1.701
1.681
1.686
1.706
1.716
1.711
1.696
1.706
1.716
1.701
1.691
1.711
1.725
1.725
1.72
1.73
1.745
1.73
1.706
1.716
1.735
1.74
1.73
1.73
1.745
1.75
1.73
1.735
1.764
1.774
1.769
1.76
1.774
1.799
1.784
1.769
1.774
1.779
1.774
1.764
1.774
1.794
1.799
1.799
1.813
1.828
1.823
1.804
1.794
1.799
1.808
1.789
1.804
1.828
1.852
1.857
1.862
1.867
1.872
1.843
1.818
1.823
1.828
1.823
1.808
1.808
1.828
1.818
1.799
1.799
1.808
1.799
1.779
1.769
1.774
1.764
1.73
1.72
1.725
1.72
1.701
1.686
1.686
1.691
1.667
1.652
1.662
1.672
1.672
1.676
1.686
1.706
1.696
1.662
1.657
1.657
1.642
1.623
1.608
1.618
1.623
1.608
1.608
1.637
1.652
1.652
1.647
1.652
1.667
1.647
1.632
1.647
1.657
1.647
1.637
1.642
1.657
1.657
1.647
1.657
1.672
1.667
1.652
1.647
1.652
1.647
1.618
1.608
1.623
1.623
1.613
1.608
1.623
1.632
1.618
1.603
1.623
1.642
1.642
1.637
1.642
1.657
1.647
1.628
1.632
1.652
1.657
1.647
1.642
1.652
1.657
1.632
1.628
1.642
1.642
1.637
1.632
1.652
1.672
1.657
1.647
1.662
1.672
1.657
1.642
1.637
1.652
1.652
1.632
1.642
1.662
1.667
1.662
1.657
1.672
1.681
1.662
1.652
1.667
1.667
1.657
1.652
1.662
1.672
1.657
1.647
1.667
1.676
1.672
1.662
1.657
1.672
1.662
1.642
1.647
1.662
1.657
1.647
1.642
1.657
1.667
1.647
1.652
1.676
1.681
1.676
1.667
1.667
1.672
1.647
1.628
1.637
1.657
1.657
1.662
1.672
1.696
1.696
1.676
1.681
1.696
1.691
1.681
1.681
1.696
1.706
1.686
1.686
1.696
1.701
1.691
1.686
1.691
1.706
1.686
1.672
1.681
1.701
1.706
1.696
1.696
1.711
1.706
1.681
1.686
1.696
1.686
1.672
1.662
1.672
1.672
1.652
1.647
1.662
1.667
1.647
1.632
1.637
1.652
1.637
1.623
1.637
1.652
1.652
1.647
1.652
1.667
1.662
1.637
1.637
1.657
1.652
1.647
1.642
1.657
1.657
1.632
1.628
1.637
1.642
1.632
1.623
1.637
1.652
1.637
1.618
1.628
1.642
1.642
1.642
1.657
1.686
1.701
1.701
1.725
1.764
1.789
1.808
1.833
1.877
1.901
1.901
1.901
1.911
1.896
1.848
1.779
1.711
1.647
1.569
1.5
1.476
1.461
1.442
1.422
1.422
1.447
1.452
1.442
1.457
1.486
1.505
1.525
1.549
1.584
1.613
1.608
1.618
1.647
1.657
1.657
1.652
1.667
1.691
1.681
1.667
1.681
1.691
1.686
1.676
1.676
1.691
1.691
1.672
1.681
1.696
1.701
1.691
1.691
1.711
1.72
1.701
1.691
1.701
1.706
1.696
1.686
1.691
1.701
1.686
1.672
1.691
1.72
1.72
1.716
1.711
1.72
1.716
1.696
1.696
1.711
1.711
1.701
1.696
1.711
1.725
1.706
1.706
1.73
1.74
1.735
1.72
1.72
1.73
1.716
1.701
1.711
1.72
1.716
1.706
1.716
1.745
1.75
1.735
1.745
1.76
1.76
1.75
1.75
1.764
1.779
1.764
1.76
1.779
1.784
1.789
1.784
1.794
1.804
1.789
1.779
1.799
1.818
1.818
1.813
1.818
1.833
1.833
1.813
1.813
1.828
1.823
1.804
1.794
1.808
1.818
1.799
1.794
1.808
1.818
1.808
1.799
1.799
1.804
1.779
1.75
1.755
1.76
1.75
1.73
1.72
1.73
1.725
1.706
1.701
1.716
1.706
1.686
1.676
1.681
1.681
1.647
1.632
1.647
1.657
1.647
1.637
1.642
1.647
1.628
1.608
1.613
1.628
1.623
1.618
1.628
1.647
1.652
1.637
1.637
1.652
1.652
1.637
1.628
1.632
1.642
1.623
1.618
1.632
1.642
1.637
1.628
1.632
1.642
1.623
1.608
1.623
1.642
1.647
1.637
1.632
1.642
1.637
1.608
1.608
1.623
1.623
1.618
1.613
1.632
1.647
1.628
1.623
1.637
1.642
1.637
1.628
1.637
1.652
1.642
1.628
1.642
1.657
1.652
1.642
1.642
1.662
1.657
1.632
1.632
1.642
1.642
1.623
1.613
1.628
1.637
1.628
1.637
1.667
1.681
1.672
1.657
1.657
1.657
1.628
1.603
1.608
1.628
1.628
1.632
1.642
1.672
1.676
1.657
1.647
1.662
1.657
1.657
1.652
1.662
1.672
1.652
1.642
1.652
1.652
1.642
1.623
1.632
1.647
1.642
1.628
1.642
1.662
1.657
1.647
1.647
1.662
1.667
1.642
1.647
1.662
1.662
1.652
1.647
1.652
1.657
1.632
1.623
1.642
1.657
1.652
1.652
1.667
1.686
1.672
1.657
1.667
1.676
1.672
1.662
1.652
1.667
1.667
1.647
1.652
1.672
1.667
1.647
1.637
1.647
1.657
1.642
1.642
1.667
1.686
1.681
1.676
1.676
1.691
1.672
1.657
1.672
1.696
1.701
1.691
1.691
1.711
1.716
1.691
1.691
1.706
1.706
1.701
1.696
1.706
1.716
1.691
1.681
1.701
1.706
1.691
1.676
1.681
1.691
1.676
1.657
1.662
1.676
1.672
1.667
1.662
1.676
1.676
1.652
1.647
1.657
1.652
1.642
1.637
1.652
1.657
1.637
1.628
1.642
1.652
1.652
1.652
1.662
1.681
1.667
1.647
1.652
1.662
1.652
1.642
1.642
1.657
1.662
1.647
1.652
1.676
1.681
1.672
1.667
1.676
1.686
1.657
1.642
1.657
1.667
1.657
1.647
1.657
1.691
1.711
1.735
1.784
1.843
1.877
1.901
1.921
1.945
1.945
1.906
1.867
1.828
1.755
1.672
1.593
1.544
1.505
1.452
1.413
1.413
1.427
1.427
1.432
1.452
1.481
1.491
1.491
1.52
1.554
1.574
1.584
1.603
1.628
1.637
1.623
1.628
1.652
1.662
1.662
1.672
1.696
1.711
1.691
1.681
1.696
1.706
1.696
1.681
1.681
1.696
1.686
1.672
1.696
1.716
1.711
1.706
1.706
1.72
1.716
1.691
1.686
1.701
1.706
1.706
1.701
1.711
1.72
1.701
1.691
1.706
1.716
1.706
1.701
1.716
1.74
1.735
1.716
1.72
1.73
1.725
1.716
1.72
1.735
1.735
1.711
1.706
1.725
1.725
1.711
1.701
1.711
1.725
1.711
1.716
1.74
1.76
1.755
1.745
1.75
1.769
1.764
1.745
1.76
1.779
1.779
1.779
1.784
1.804
1.804
1.784
1.784
1.804
1.808
1.804
1.799
1.808
1.823
1.808
1.804
1.823
1.843
1.833
1.828
1.828
1.838
1.823
1.804
1.808
1.823
1.823
1.823
1.823
1.843
1.843
1.813
1.804
1.813
1.808
1.794
1.779
1.784
1.789
1.764
1.745
1.75
1.745
1.725
1.701
1.696
1.706
1.696
1.676
1.686
1.701
1.701
1.691
1.686
1.696
1.691
1.667
1.667
1.691
1.696
1.681
1.667
1.672
1.676
1.647
1.632
1.642
1.652
1.642
1.637
1.642
1.662
1.657
1.637
1.647
1.667
1.667
1.662
1.662
1.676
1.681
1.667
1.662
1.672
1.667
1.647
1.632
1.632
1.637
1.618
1.613
1.632
1.647
1.647
1.647
1.657
1.672
1.657
1.632
1.632
1.637
1.623
1.613
1.618
1.637
1.647
1.637
1.642
1.667
1.676
1.672
1.662
1.662
1.667
1.647
1.632
1.647
1.662
1.657
1.657
1.667
1.681
1.672
1.647
1.652
1.662
1.657
1.652
1.652
1.667
1.662
1.642
1.642
1.662
1.667
1.657
1.647
1.662
1.672
1.657
1.642
1.657
1.667
1.662
1.657
1.667
1.681
1.676
1.657
1.667
1.676
1.672
1.662
1.662
1.676
1.676
1.652
1.647
1.657
1.657
1.642
1.632
1.637
1.652
1.637
1.637
1.662
1.681
1.681
1.672
1.667
1.676
1.667
1.652
1.652
1.667
1.667
1.657
1.662
1.676
1.681
1.657
1.652
1.662
1.662
1.657
1.647
1.657
1.672
1.652
1.642
1.657
1.672
1.667
1.662
1.662
1.676
1.667
1.647
1.657
1.672
1.676
1.667
1.667
1.681
1.686
1.662
1.667
1.686
1.686
1.676
1.667
1.672
1.686
1.672
1.662
1.681
1.691
1.686
1.681
1.691
1.716
1.701
1.676
1.681
1.696
1.691
1.686
1.691
1.716
1.725
1.711
1.706
1.72
1.72
1.711
1.696
1.696
1.706
1.681
1.672
1.691
1.711
1.711
1.711
1.716
1.73
1.725
1.706
1.711
1.72
1.706
1.681
1.667
1.672
1.667
1.642
1.637
1.657
1.662
1.657
1.647
1.652
1.667
1.652
1.637
1.647
1.657
1.652
1.642
1.642
1.662
1.657
1.637
1.642
1.662
1.662
1.657
1.657
1.672
1.667
1.642
1.632
1.647
1.652
1.642
1.637
1.647
1.667
1.657
1.647
1.662
1.672
1.672
1.667
1.681
1.711
1.73
1.755
1.808
1.867
1.901
1.921
1.94
1.965
1.96
1.921
1.877
1.838
1.779
1.701
1.628
1.574
1.535
1.471
1.427
1.417
1.417
1.413
1.413
1.432
1.471
1.481
1.476
1.5
1.54
1.559
1.574
1.593
1.628
1.652
1.647
1.667
1.696
1.706
1.696
1.686
1.686
1.691
1.667
1.652
1.667
1.681
1.681
1.676
1.681
1.701
1.696
1.681
1.696
1.716
1.72
1.711
1.706
1.72
1.725
1.701
1.701
1.716
1.72
1.706
1.696
1.696
1.706
1.686
1.676
1.691
1.711
1.711
1.716
1.73
1.76
1.76
1.74
1.74
1.74
1.73
1.716
1.706
1.711
1.716
1.691
1.691
1.711
1.72
1.716
1.716
1.73
1.74
1.725
1.72
1.74
1.769
1.774
1.769
1.774
1.794
1.789
1.764
1.764
1.774
1.769
1.755
1.75
1.76
1.764
1.745
1.75
1.774
1.794
1.799
1.808
1.833
1.852
1.833
1.823
1.833
1.848
1.838
1.823
1.818
1.833
1.833
1.808
1.818
1.838
1.838
1.828
1.823
1.848
1.848
1.828
1.818
1.833
1.828
1.808
1.789
1.789
1.794
1.769
1.745
1.75
1.76
1.75
1.735
1.73
1.745
1.735
1.711
1.711
1.725
1.72
1.706
1.691
1.686
1.672
1.632
1.623
1.642
1.652
1.652
1.657
1.676
1.701
1.696
1.681
1.691
1.701
1.686
1.662
1.652
1.662
1.657
1.637
1.642
1.662
1.662
1.657
1.662
1.676
1.686
1.662
1.652
1.662
1.657
1.632
1.618
1.623
1.632
1.618
1.613
1.628
1.642
1.642
1.637
1.647
1.672
1.672
1.657
1.662
1.676
1.672
1.657
1.647
1.657
1.657
1.632
1.623
1.642
1.647
1.642
1.642
1.647
1.662
1.647
1.637
1.657
1.676
1.676
1.667
1.672
1.686
1.681
1.657
1.657
1.672
1.667
1.652
1.647
1.662
1.672
1.647
1.647
1.667
1.676
1.662
1.652
1.657
1.672
1.662
1.652
1.667
1.681
1.676
1.667
1.672
1.686
1.681
1.657
1.652
1.667
1.667
1.657
1.652
1.662
1.667
1.642
1.637
1.657
1.667
1.667
1.662
1.667
1.676
1.657
1.642
1.657
1.672
1.667
1.657
1.662
1.676
1.676
1.662
1.667
1.686
1.696
1.696
1.691
1.701
1.706
1.676
1.667
1.676
1.676
1.667
1.657
1.662
1.681
1.676
1.667
1.672
1.681
1.667
1.652
1.652
1.667
1.667
1.647
1.657
1.681
1.686
1.681
1.672
1.676
1.681
1.657
1.652
1.672
1.676
1.676
1.672
1.681
1.691
1.676
1.657
1.667
1.681
1.681
1.672
1.672
1.681
1.681
1.657
1.662
1.681
1.686
1.691
1.701
1.725
1.74
1.72
1.716
1.735
1.745
1.735
1.725
1.73
1.745
1.735
1.72
1.73
1.735
1.725
1.711
1.711
1.725
1.725
1.706
1.711
1.725
1.72
1.701
1.686
1.691
1.691
1.662
1.642
1.652
1.652
1.642
1.637
1.647
1.662
1.652
1.642
1.657
1.676
1.672
1.662
1.662
1.676
1.676
1.652
1.657
1.676
1.672
1.652
1.637
1.642
1.642
1.618
1.613
1.637
1.647
1.647
1.642
1.652
1.672
1.662
1.647
1.662
1.681
1.691
1.696
1.72
1.76
1.779
1.789
1.828
1.877
1.906
1.916
1.926
1.945
1.95
1.921
1.887
1.857
1.794
1.711
1.632
1.574
1.53
1.466
1.413
1.403
1.413
1.413
1.417
1.432
1.466
1.476
1.466
1.486
1.525
1.549
1.564
1.584
1.618
1.647
1.647
1.657
1.686
1.706
1.706
1.696
1.701
1.711
1.691
1.672
1.686
1.701
1.701
1.701
1.706
1.725
1.725
1.701
1.696
1.706
1.706
1.691
1.696
1.72
1.74
1.72
1.716
1.725
1.725
1.706
1.681
1.667
1.672
1.662
1.657
1.681
1.706
1.716
1.716
1.725
1.74
1.74
1.711
1.706
1.716
1.711
1.711
1.711
1.73
1.745
1.725
1.716
1.73
1.735
1.73
1.725
1.73
1.75
1.74
1.73
1.755
1.779
1.784
1.779
1.784
1.799
1.799
1.779
1.774
1.794
1.799
1.794
1.784
1.799
1.804
1.784
1.774
1.794
1.804
1.799
1.789
1.804
1.823
1.823
1.813
1.828
1.852
1.852
1.838
1.833
1.838
1.833
1.808
1.808
1.818
1.818
1.808
1.804
1.818
1.828
1.804
1.799
1.808
1.813
1.804
1.794
1.794
1.804
1.784
1.764
1.764
1.769
1.755
1.735
1.73
1.74
1.735
1.711
1.711
1.72
1.711
1.696
1.676
1.676
1.676
1.647
1.637
1.657
1.667
1.662
1.657
1.667
1.681
1.662
1.642
1.647
1.657
1.642
1.628
1.623
1.632
1.632
1.608
1.608
1.628
1.637
1.632
1.632
1.647
1.657
1.637
1.632
1.647
1.657
1.642
1.632
1.632
1.647
1.632
1.613
1.628
1.642
1.642
1.637
1.642
1.662
1.667
1.652
1.652
1.667
1.667
1.652
1.642
1.652
1.662
1.637
1.628
1.642
1.652
1.642
1.637
1.647
1.662
1.652
1.628
1.632
1.637
1.632
1.623
1.628
1.647
1.652
1.637
1.647
1.672
1.681
1.676
1.662
1.667
1.672
1.652
1.647
1.667
1.676
1.667
1.652
1.657
1.672
1.657
1.637
1.642
1.657
1.652
1.642
1.647
1.667
1.667
1.657
1.662
1.681
1.681
1.672
1.662
1.676
1.681
1.657
1.647
1.662
1.672
1.672
1.657
1.662
1.672
1.657
1.637
1.647
1.662
1.662
1.657
1.657
1.676
1.681
1.662
1.667
1.686
1.686
1.676
1.667
1.676
1.681
1.652
1.637
1.652
1.667
1.667
1.667
1.681
1.701
1.691
1.676
1.681
1.691
1.681
1.667
1.657
1.672
1.672
1.652
1.657
1.676
1.681
1.681
1.681
1.696
1.716
1.706
1.706
1.72
1.73
1.716
1.696
1.696
1.701
1.686
1.667
1.681
1.696
1.696
1.691
1.701
1.72
1.716
1.691
1.686
1.696
1.691
1.667
1.652
1.652
1.657
1.632
1.618
1.628
1.642
1.647
1.642
1.657
1.676
1.667
1.652
1.662
1.681
1.672
1.657
1.652
1.662
1.657
1.637
1.632
1.652
1.657
1.647
1.642
1.657
1.672
1.652
1.642
1.652
1.662
1.657
1.647
1.647
1.657
1.647
1.632
1.647
1.662
1.662
1.657
1.667
1.691
1.701
1.696
1.725
1.774
1.808
1.838
1.862
1.901
1.926
1.901
1.882
1.867
1.833
1.774
1.696
1.632
1.588
1.53
1.471
1.447
1.437
1.417
1.408
1.408
1.427
1.447
1.442
1.466
1.51
1.54
1.554
1.569
1.598
1.628
1.618
1.623
1.652
1.676
1.672
1.672
1.681
1.706
1.696
1.672
1.676
1.686
1.686
1.676
1.681
1.701
1.716
1.696
1.701
1.72
1.72
1.711
1.696
1.701
1.706
1.686
1.676
1.696
1.711
1.711
1.716
1.725
1.735
1.72
1.701
1.701
1.706
1.696
1.681
1.686
1.711
1.72
1.711
1.716
1.73
1.73
1.716
1.701
1.706
1.716
1.696
1.691
1.711
1.73
1.735
1.735
1.745
1.764
1.75
1.725
1.735
1.76
1.764
1.769
1.769
1.784
1.789
1.764
1.764
1.779
1.779
1.769
1.764
1.779
1.804
1.794
1.794
1.813
1.833
1.823
1.808
1.813
1.828
1.823
1.813
1.828
1.843
1.843
1.833
1.838
1.852
1.857
1.828
1.823
1.838
1.848
1.843
1.843
1.852
1.857
1.823
1.804
1.808
1.808
1.789
1.774
1.779
1.799
1.789
1.769
1.779
1.794
1.784
1.764
1.755
1.755
1.75
1.72
1.716
1.725
1.716
1.701
1.681
1.681
1.686
1.662
1.657
1.676
1.691
1.681
1.672
1.672
1.681
1.667
1.642
1.647
1.662
1.657
1.647
1.647
1.662
1.662
1.637
1.637
1.652
1.657
1.652
1.647
1.652
1.662
1.642
1.632
1.642
1.652
1.657
1.657
1.672
1.686
1.676
1.652
1.657
1.667
1.662
1.647
1.642
1.657
1.657
1.632
1.632
1.647
1.647
1.637
1.628
1.642
1.662
1.657
1.647
1.662
1.667
1.657
1.642
1.642
1.652
1.647
1.632
1.647
1.667
1.672
1.667
1.662
1.662
1.657
1.632
1.632
1.652
1.657
1.657
1.657
1.676
1.696
1.681
1.662
1.667
1.672
1.657
1.647
1.647
1.667
1.657
1.642
1.652
1.672
1.672
1.662
1.662
1.681
1.686
1.667
1.672
1.691
1.696
1.691
1.686
1.686
1.691
1.667
1.652
1.662
1.672
1.657
1.642
1.647
1.672
1.667
1.652
1.662
1.676
1.672
1.662
1.657
1.672
1.681
1.662
1.667
1.686
1.691
1.681
1.672
1.681
1.691
1.667
1.657
1.672
1.691
1.691
1.691
1.701
1.72
1.72
1.701
1.706
1.725
1.72
1.711
1.711
1.72
1.716
1.686
1.681
1.696
1.701
1.691
1.691
1.706
1.72
1.711
1.706
1.72
1.73
1.716
1.696
1.686
1.686
1.662
1.628
1.632
1.652
1.652
1.647
1.642
1.657
1.662
1.642
1.637
1.657
1.662
1.652
1.647
1.662
1.672
1.647
1.628
1.632
1.637
1.628
1.618
1.628
1.657
1.662
1.652
1.672
1.691
1.686
1.667
1.652
1.657
1.662
1.642
1.642
1.652
1.657
1.647
1.642
1.652
1.662
1.647
1.642
1.667
1.696
1.716
1.73
1.76
1.804
1.828
1.843
1.882
1.916
1.926
1.916
1.901
1.877
1.823
1.735
1.657
1.608
1.559
1.5
1.457
1.442
1.442
1.413
1.403
1.422
1.447
1.457
1.471
1.5
1.544
1.564
1.564
1.593
1.618
1.628
1.618
1.618
1.637
1.652
1.637
1.642
1.672
1.686
1.681
1.681
1.696
1.711
1.691
1.676
1.686
1.696
1.686
1.672
1.676
1.696
1.691
1.676
1.686
1.706
1.711
1.706
1.701
1.716
1.72
1.696
1.691
1.701
1.706
1.696
1.686
1.696
1.706
1.691
1.681
1.696
1.716
1.711
1.706
1.711
1.73
1.72
1.706
1.716
1.73
1.725
1.706
1.701
1.716
1.725
1.706
1.711
1.74
1.755
1.75
1.74
1.75
1.76
1.74
1.72
1.73
1.74
1.74
1.735
1.745
1.774
1.779
1.769
1.779
1.794
1.794
1.789
1.789
1.808
1.818
1.804
1.799
1.823
1.833
1.828
1.818
1.823
1.833
1.813
1.804
1.828
1.843
1.838
1.833
1.833
1.848
1.838
1.818
1.818
1.838
1.833
1.818
1.808
1.813
1.813
1.794
1.784
1.789
1.784
1.764
1.755
1.755
1.764
1.735
1.716
1.716
1.716
1.701
1.681
1.681
1.686
1.681
1.657
1.662
1.672
1.672
1.672
1.672
1.681
1.681
1.652
1.637
1.642
1.642
1.628
1.623
1.637
1.652
1.647
1.642
1.662
1.672
1.662
1.647
1.647
1.652
1.642
1.623
1.623
1.642
1.642
1.632
1.628
1.637
1.642
1.618
1.613
1.632
1.642
1.632
1.628
1.637
1.652
1.637
1.623
1.632
1.642
1.637
1.628
1.628
1.642
1.632
1.608
1.618
1.642
1.652
1.647
1.642
1.652
1.657
1.632
1.623
1.637
1.637
1.618
1.613
1.623
1.642
1.628
1.618
1.632
1.647
1.647
1.642
1.647
1.662
1.662
1.647
1.657
1.681
1.681
1.667
1.657
1.667
1.667
1.642
1.637
1.652
1.657
1.647
1.642
1.657
1.667
1.647
1.637
1.652
1.662
1.657
1.647
1.657
1.676
1.667
1.647
1.652
1.667
1.662
1.657
1.662
1.681
1.686
1.662
1.657
1.672
1.667
1.647
1.642
1.647
1.657
1.647
1.637
1.652
1.672
1.667
1.657
1.652
1.667
1.657
1.637
1.647
1.672
1.672
1.662
1.647
1.652
1.657
1.632
1.632
1.652
1.662
1.657
1.657
1.672
1.681
1.662
1.637
1.642
1.652
1.647
1.637
1.642
1.667
1.667
1.657
1.667
1.691
1.696
1.691
1.691
1.711
1.72
1.706
1.701
1.711
1.711
1.701
1.696
1.701
1.711
1.691
1.676
1.696
1.711
1.701
1.686
1.686
1.696
1.681
1.652
1.652
1.667
1.662
1.647
1.637
1.647
1.652
1.632
1.628
1.642
1.647
1.642
1.632
1.642
1.647
1.628
1.613
1.623
1.632
1.632
1.628
1.632
1.652
1.647
1.628
1.628
1.642
1.642
1.632
1.628
1.642
1.647
1.628
1.623
1.642
1.647
1.637
1.628
1.637
1.662
1.652
1.652
1.676
1.701
1.706
1.716
1.74
1.784
1.808
1.823
1.862
1.906
1.926
1.926
1.921
1.911
1.877
1.794
1.72
1.672
1.613
1.554
1.505
1.466
1.452
1.417
1.398
1.408
1.427
1.427
1.432
1.452
1.496
1.52
1.535
1.569
1.608
1.628
1.628
1.632
1.647
1.662
1.642
1.647
1.676
1.696
1.696
1.691
1.701
1.711
1.691
1.672
1.676
1.686
1.676
1.667
1.672
1.696
1.696
1.676
1.681
1.701
1.701
1.696
1.696
1.711
1.72
1.701
1.691
1.706
1.706
1.701
1.691
1.696
1.701
1.681
1.667
1.681
1.701
1.706
1.701
1.706
1.725
1.72
1.706
1.711
1.725
1.72
1.701
1.686
1.696
1.696
1.676
1.676
1.706
1.73
1.74
1.745
1.76
1.779
1.764
1.74
1.74
1.74
1.72
1.706
1.716
1.745
1.755
1.745
1.76
1.784
1.789
1.779
1.774
1.779
1.784
1.755
1.745
1.764
1.774
1.774
1.779
1.794
1.813
1.804
1.799
1.813
1.828
1.823
1.813
1.813
1.833
1.833
1.813
1.813
1.828
1.818
1.804
1.789
1.794
1.794
1.769
1.76
1.774
1.779
1.779
1.769
1.769
1.774
1.75
1.725
1.725
1.725
1.711
1.691
1.686
1.696
1.701
1.681
1.686
1.706
1.701
1.681
1.667
1.676
1.676
1.647
1.632
1.642
1.642
1.637
1.637
1.647
1.667
1.662
1.652
1.662
1.667
1.657
1.637
1.628
1.632
1.628
1.603
1.613
1.637
1.647
1.642
1.637
1.652
1.662
1.642
1.632
1.647
1.652
1.642
1.632
1.637
1.652
1.637
1.618
1.628
1.642
1.637
1.632
1.637
1.652
1.652
1.637
1.652
1.676
1.676
1.657
1.647
1.657
1.657
1.628
1.613
1.618
1.628
1.632
1.642
1.657
1.681
1.667
1.652
1.662
1.672
1.667
1.657
1.647
1.657
1.657
1.637
1.647
1.662
1.662
1.647
1.642
1.657
1.667
1.647
1.642
1.652
1.657
1.652
1.647
1.657
1.676
1.667
1.652
1.667
1.686
1.681
1.667
1.662
1.667
1.657
1.637
1.642
1.667
1.676
1.672
1.672
1.686
1.696
1.676
1.662
1.672
1.672
1.662
1.647
1.652
1.667
1.647
1.637
1.652
1.667
1.662
1.657
1.657
1.676
1.676
1.657
1.662
1.681
1.686
1.681
1.672
1.681
1.681
1.657
1.642
1.657
1.662
1.657
1.647
1.657
1.672
1.662
1.642
1.657
1.676
1.676
1.667
1.672
1.686
1.686
1.662
1.662
1.672
1.672
1.662
1.652
1.667
1.681
1.667
1.667
1.686
1.696
1.686
1.676
1.686
1.701
1.686
1.672
1.681
1.696
1.696
1.686
1.686
1.706
1.711
1.696
1.701
1.725
1.725
1.716
1.706
1.716
1.72
1.696
1.686
1.706
1.711
1.711
1.711
1.72
1.735
1.716
1.691
1.691
1.701
1.686
1.672
1.662
1.672
1.676
1.657
1.667
1.681
1.681
1.657
1.637
1.637
1.642
1.618
1.613
1.642
1.662
1.662
1.657
1.662
1.676
1.657
1.628
1.632
1.642
1.642
1.637
1.647
1.672
1.676
1.652
1.652
1.662
1.657
1.637
1.628
1.637
1.647
1.628
1.628
1.647
1.662
1.667
1.662
1.676
1.701
1.696
1.696
1.73
1.774
1.808
1.838
1.882
1.926
1.95
1.931
1.931
1.926
1.882
1.804
1.72
1.657
1.598
1.52
1.466
1.447
1.432
1.417
1.408
1.427
1.452
1.461
1.457
1.481
1.505
1.52
1.53
1.554
1.584
1.608
1.603
1.623
1.652
1.667
1.662
1.657
1.667
1.672
1.647
1.623
1.632
1.637
1.642
1.642
1.652
1.672
1.672
1.672
1.696
1.72
1.72
1.711
1.716
1.725
1.725
1.701
1.701
1.716
1.711
1.701
1.691
1.701
1.706
1.686
1.676
1.691
1.706
1.706
1.706
1.716
1.74
1.725
1.706
1.706
1.716
1.711
1.706
1.706
1.725
1.73
1.716
1.725
1.74
1.735
1.73
1.725
1.74
1.755
1.735
1.73
1.745
1.75
1.735
1.72
1.725
1.745
1.735
1.725
1.745
1.764
1.774
1.774
1.774
1.784
1.774
1.75
1.75
1.774
1.784
1.779
1.774
1.794
1.808
1.799
1.794
1.808
1.818
1.808
1.804
1.813
1.833
1.823
1.813
1.828
1.843
1.838
1.823
1.813
1.823
1.828
1.808
1.804
1.813
1.818
1.808
1.799
1.804
1.808
1.784
1.764
1.769
1.769
1.755
1.74
1.74
1.755
1.735
1.711
1.716
1.72
1.716
1.696
1.686
1.696
1.691
1.657
1.642
1.657
1.657
1.647
1.642
1.652
1.662
1.642
1.637
1.657
1.667
1.662
1.647
1.647
1.662
1.652
1.632
1.642
1.662
1.652
1.642
1.647
1.667
1.672
1.647
1.652
1.667
1.672
1.662
1.657
1.662
1.667
1.642
1.628
1.642
1.647
1.642
1.637
1.647
1.667
1.657
1.642
1.657
1.676
1.672
1.657
1.647
1.652
1.652
1.628
1.628
1.647
1.652
1.652
1.647
1.657
1.667
1.642
1.632
1.642
1.647
1.642
1.632
1.642
1.662
1.662
1.647
1.657
1.672
1.667
1.657
1.647
1.657
1.652
1.632
1.637
1.652
1.657
1.647
1.642
1.657
1.676
1.672
1.672
1.691
1.701
1.696
1.686
1.681
1.686
1.662
1.637
1.642
1.657
1.657
1.657
1.662
1.681
1.686
1.662
1.662
1.676
1.676
1.667
1.657
1.676
1.691
1.672
1.662
1.676
1.696
1.691
1.672
1.672
1.686
1.676
1.662
1.667
1.686
1.686
1.681
1.681
1.696
1.691
1.667
1.662
1.681
1.681
1.667
1.657
1.672
1.691
1.676
1.667
1.681
1.691
1.681
1.672
1.681
1.701
1.691
1.672
1.676
1.686
1.681
1.672
1.667
1.681
1.681
1.652
1.647
1.667
1.676
1.672
1.667
1.676
1.686
1.672
1.667
1.681
1.691
1.681
1.667
1.667
1.686
1.681
1.667
1.676
1.691
1.691
1.686
1.691
1.716
1.725
1.716
1.72
1.735
1.735
1.72
1.711
1.716
1.72
1.706
1.696
1.711
1.725
1.72
1.711
1.711
1.72
1.711
1.691
1.706
1.72
1.725
1.716
1.711
1.716
1.706
1.672
1.657
1.662
1.662
1.647
1.642
1.657
1.672
1.657
1.647
1.667
1.672
1.662
1.652
1.657
1.672
1.662
1.642
1.652
1.667
1.667
1.662
1.657
1.672
1.676
1.647
1.642
1.657
1.662
1.657
1.647
1.657
1.672
1.657
1.652
1.672
1.686
1.681
1.662
1.652
1.662
1.662
1.657
1.676
1.711
1.725
1.74
1.769
1.818
1.857
1.867
1.896
1.931
1.95
1.94
1.921
1.896
1.852
1.764
1.676
1.618
1.564
1.505
1.461
1.437
1.437
1.427
1.413
1.427
1.457
1.466
1.476
1.496
1.535
1.559
1.559
1.584
1.623
1.647
1.657
1.662
1.681
1.696
1.681
1.667
1.676
1.686
1.681
1.676
1.691
1.711
1.706
1.686
1.691
1.706
1.701
1.681
1.672
1.686
1.696
1.681
1.681
1.706
1.72
1.711
1.696
1.696
1.701
1.676
1.672
1.691
1.716
1.716
1.716
1.725
1.745
1.74
1.716
1.716
1.73
1.725
1.716
1.716
1.735
1.74
1.716
1.711
1.725
1.725
1.711
1.701
1.711
1.73
1.73
1.735
1.76
1.779
1.774
1.764
1.769
1.774
1.764
1.74
1.75
1.764
1.774
1.769
1.774
1.794
1.804
1.779
1.769
1.784
1.784
1.784
1.779
1.794
1.813
1.808
1.808
1.833
1.848
1.843
1.833
1.833
1.848
1.838
1.813
1.818
1.838
1.838
1.833
1.833
1.848
1.848
1.823
1.823
1.838
1.843
1.828
1.818
1.823
1.828
1.808
1.789
1.799
1.799
1.789
1.769
1.764
1.769
1.755
1.72
1.72
1.725
1.716
1.701
1.691
1.711
1.72
1.696
1.696
1.711
1.711
1.696
1.681
1.686
1.696
1.672
1.657
1.662
1.672
1.662
1.652
1.652
1.662
1.652
1.628
1.637
1.652
1.652
1.647
1.647
1.657
1.662
1.642
1.642
1.662
1.667
1.662
1.647
1.652
1.662
1.642
1.632
1.647
1.662
1.657
1.652
1.657
1.676
1.672
1.647
1.652
1.662
1.652
1.637
1.632
1.642
1.637
1.618
1.618
1.642
1.647
1.642
1.642
1.657
1.667
1.652
1.642
1.657
1.672
1.667
1.662
1.672
1.691
1.681
1.662
1.667
1.681
1.676
1.662
1.657
1.672
1.676
1.657
1.652
1.672
1.676
1.667
1.667
1.676
1.691
1.672
1.657
1.667
1.672
1.662
1.647
1.652
1.667
1.667
1.657
1.672
1.696
1.706
1.691
1.681
1.691
1.686
1.657
1.652
1.662
1.667
1.662
1.657
1.662
1.667
1.642
1.632
1.652
1.667
1.667
1.662
1.667
1.686
1.686
1.667
1.667
1.676
1.667
1.657
1.652
1.672
1.676
1.657
1.662
1.686
1.691
1.686
1.681
1.686
1.696
1.676
1.662
1.672
1.686
1.681
1.676
1.681
1.696
1.686
1.662
1.667
1.681
1.676
1.667
1.672
1.696
1.716
1.701
1.711
1.735
1.745
1.735
1.716
1.716
1.72
1.706
1.686
1.696
1.711
1.701
1.691
1.696
1.711
1.706
1.686
1.696
1.716
1.725
1.725
1.725
1.735
1.74
1.716
1.701
1.701
1.691
1.672
1.652
1.657
1.672
1.657
1.637
1.647
1.657
1.652
1.647
1.652
1.672
1.672
1.652
1.657
1.672
1.672
1.662
1.657
1.667
1.667
1.642
1.632
1.647
1.652
1.647
1.642
1.657
1.672
1.667
1.662
1.686
1.701
1.691
1.672
1.667
1.676
1.667
1.642
1.647
1.672
1.672
1.672
1.681
1.711
1.74
1.74
1.764
1.808
1.848
1.872
1.891
1.916
1.935
1.916
1.887
1.867
1.828
1.755
1.676
1.613
1.564
1.505
1.437
1.413
1.413
1.413
1.408
1.422
1.457
1.486
1.491
1.515
1.554
1.579
1.588
1.598
1.618
1.642
1.637
1.637
1.657
1.676
1.672
1.667
1.672
1.691
1.686
1.672
1.681
1.711
1.72
1.716
1.716
1.73
1.73
1.706
1.691
1.706
1.706
1.701
1.696
1.701
1.706
1.691
1.672
1.686
1.701
1.701
1.696
1.701
1.725
1.73
1.711
1.716
1.73
1.73
1.72
1.716
1.725
1.735
1.716
1.711
1.73
1.735
1.73
1.73
1.74
1.76
1.75
1.73
1.745
1.755
1.745
1.735
1.735
1.755
1.755
1.74
1.755
1.779
1.784
1.774
1.769
1.779
1.779
1.755
1.745
1.764
1.779
1.784
1.789
1.808
1.823
1.808
1.794
1.804
1.813
1.808
1.799
1.799
1.818
1.818
1.808
1.813
1.838
1.838
1.833
1.828
1.843
1.848
1.828
1.823
1.843
1.852
1.843
1.833
1.838
1.852
1.833
1.818
1.823
1.838
1.828
1.813
1.804
1.813
1.799
1.764
1.764
1.779
1.774
1.755
1.74
1.745
1.745
1.72
1.711
1.72
1.711
1.691
1.681
1.681
1.691
1.667
1.642
1.652
1.662
1.662
1.657
1.662
1.681
1.681
1.662
1.662
1.672
1.667
1.652
1.642
1.647
1.652
1.628
1.628
1.647
1.647
1.628
1.608
1.613
1.628
1.618
1.608
1.628
1.652
1.652
1.652
1.657
1.667
1.652
1.618
1.613
1.628
1.632
1.632
1.628
1.642
1.652
1.632
1.623
1.637
1.637
1.628
1.618
1.632
1.657
1.652
1.647
1.662
1.676
1.662
1.642
1.637
1.647
1.647
1.628
1.628
1.642
1.657
1.657
1.657
1.672
1.681
1.662
1.662
1.681
1.686
1.667
1.642
1.642
1.647
1.637
1.623
1.637
1.657
1.662
1.667
1.676
1.691
1.681
1.652
1.647
1.657
1.657
1.642
1.637
1.647
1.657
1.642
1.637
1.662
1.672
1.667
1.657
1.667
1.676
1.662
1.642
1.652
1.667
1.662
1.657
1.662
1.691
1.696
1.676
1.676
1.686
1.676
1.662
1.652
1.662
1.667
1.652
1.647
1.667
1.676
1.672
1.657
1.657
1.672
1.657
1.642
1.657
1.672
1.676
1.672
1.667
1.672
1.657
1.628
1.628
1.642
1.642
1.642
1.652
1.686
1.711
1.696
1.691
1.711
1.706
1.686
1.667
1.672
1.686
1.681
1.681
1.706
1.735
1.73
1.716
1.706
1.706
1.691
1.667
1.662
1.681
1.686
1.681
1.686
1.701
1.706
1.672
1.652
1.657
1.657
1.652
1.647
1.662
1.681
1.672
1.652
1.662
1.672
1.662
1.647
1.642
1.652
1.647
1.628
1.637
1.662
1.667
1.662
1.652
1.662
1.667
1.642
1.632
1.642
1.652
1.642
1.632
1.637
1.657
1.642
1.628
1.637
1.652
1.642
1.637
1.637
1.657
1.667
1.652
1.667
1.696
1.711
1.73
1.755
1.804
1.848
1.867
1.891
1.921
1.931
1.906
1.867
1.823
1.779
1.691
1.603
1.554
1.52
1.476
1.442
1.422
1.427
1.427
1.417
1.437
1.471
1.491
1.5
1.515
1.549
1.579
1.579
1.584
1.618
1.642
1.642
1.642
1.647
1.662
1.652
1.642
1.657
1.676
1.676
1.676
1.681
1.706
1.701
1.676
1.676
1.691
1.691
1.676
1.672
1.681
1.691
1.672
1.667
1.681
1.696
1.686
1.686
1.696
1.72
1.711
1.701
1.711
1.72
1.711
1.696
1.691
1.706
1.706
1.691
1.696
1.72
1.72
1.716
1.711
1.725
1.735
1.72
1.716
1.725
1.73
1.72
1.706
1.711
1.725
1.716
1.706
1.716
1.735
1.74
1.74
1.74
1.76
1.755
1.73
1.735
1.76
1.769
1.76
1.75
1.76
1.769
1.745
1.74
1.755
1.769
1.774
1.774
1.794
1.818
1.808
1.799
1.813
1.828
1.818
1.808
1.808
1.823
1.828
1.813
1.818
1.838
1.838
1.828
1.818
1.828
1.838
1.813
1.804
1.823
1.833
1.828
1.818
1.818
1.823
1.804
1.774
1.769
1.769
1.75
1.73
1.73
1.75
1.755
1.735
1.735
1.75
1.745
1.73
1.711
1.711
1.706
1.672
1.652
1.657
1.657
1.647
1.632
1.637
1.652
1.642
1.632
1.642
1.662
1.657
1.642
1.637
1.652
1.652
1.632
1.632
1.652
1.652
1.642
1.637
1.652
1.657
1.637
1.623
1.632
1.637
1.628
1.623
1.623
1.637
1.628
1.623
1.642
1.662
1.662
1.652
1.652
1.662
1.657
1.628
1.628
1.647
1.652
1.647
1.642
1.657
1.672
1.652
1.642
1.652
1.652
1.637
1.623
1.632
1.647
1.637
1.628
1.647
1.667
1.662
1.647
1.637
1.642
1.642
1.623
1.628
1.647
1.662
1.662
1.662
1.672
1.681
1.657
1.647
1.657
1.662
1.657
1.652
1.662
1.676
1.667
1.647
1.657
1.667
1.662
1.652
1.657
1.676
1.681
1.662
1.662
1.681
1.681
1.676
1.672
1.681
1.686
1.667
1.652
1.662
1.672
1.667
1.652
1.662
1.681
1.672
1.652
1.662
1.681
1.681
1.672
1.672
1.691
1.696
1.667
1.667
1.672
1.667
1.652
1.642
1.652
1.667
1.647
1.642
1.662
1.681
1.681
1.676
1.676
1.686
1.676
1.652
1.662
1.672
1.672
1.672
1.672
1.676
1.676
1.657
1.662
1.676
1.676
1.667
1.657
1.672
1.681
1.667
1.657
1.672
1.681
1.681
1.672
1.681
1.701
1.691
1.676
1.681
1.691
1.681
1.672
1.667
1.681
1.691
1.676
1.691
1.72
1.73
1.725
1.725
1.73
1.735
1.716
1.706
1.72
1.725
1.716
1.706
1.706
1.72
1.711
1.696
1.701
1.716
1.716
1.701
1.696
1.701
1.691
1.662
1.652
1.662
1.662
1.657
1.647
1.662
1.672
1.657
1.647
1.662
1.672
1.667
1.652
1.652
1.667
1.657
1.637
1.652
1.672
1.672
1.667
1.667
1.691
1.686
1.652
1.637
1.642
1.637
1.632
1.637
1.662
1.681
1.672
1.672
1.691
1.701
1.691
1.672
1.672
1.686
1.681
1.676
1.711
1.75
1.779
1.799
1.833
1.882
1.916
1.921
1.935
1.95
1.94
1.887
1.818
1.745
1.672
1.579
1.505
1.476
1.452
1.422
1.408
1.417
1.442
1.447
1.442
1.466
1.496
1.515
1.525
1.544
1.574
1.588
1.584
1.603
1.637
1.657
1.662
1.672
1.701
1.725
1.716
1.706
1.711
1.716
1.701
1.686
1.691
1.696
1.676
1.657
1.657
1.681
1.686
1.691
1.701
1.72
1.725
1.701
1.701
1.711
1.706
1.691
1.686
1.701
1.716
1.696
1.691
1.711
1.72
1.711
1.696
1.696
1.711
1.711
1.701
1.711
1.725
1.725
1.711
1.711
1.73
1.735
1.716
1.711
1.73
1.735
1.735
1.735
1.75
1.76
1.745
1.735
1.755
1.764
1.755
1.745
1.745
1.755
1.745
1.73
1.745
1.764
1.76
1.75
1.755
1.784
1.799
1.784
1.784
1.804
1.804
1.794
1.784
1.799
1.813
1.799
1.794
1.808
1.823
1.818
1.808
1.808
1.818
1.808
1.789
1.804
1.823
1.828
1.823
1.818
1.823
1.818
1.794
1.794
1.808
1.818
1.808
1.804
1.808
1.813
1.789
1.774
1.779
1.784
1.769
1.755
1.75
1.764
1.755
1.735
1.735
1.745
1.725
1.701
1.686
1.691
1.691
1.662
1.652
1.662
1.667
1.662
1.657
1.667
1.672
1.647
1.632
1.642
1.657
1.652
1.642
1.647
1.662
1.652
1.628
1.632
1.647
1.652
1.652
1.652
1.667
1.672
1.652
1.647
1.657
1.652
1.642
1.628
1.632
1.642
1.628
1.618
1.637
1.652
1.647
1.642
1.652
1.672
1.667
1.647
1.652
1.667
1.657
1.637
1.632
1.642
1.642
1.628
1.628
1.652
1.662
1.657
1.652
1.662
1.676
1.657
1.647
1.657
1.662
1.647
1.628
1.632
1.647
1.652
1.642
1.657
1.681
1.681
1.667
1.662
1.676
1.676
1.647
1.637
1.647
1.642
1.632
1.623
1.632
1.647
1.637
1.632
1.657
1.676
1.676
1.672
1.676
1.691
1.681
1.657
1.657
1.676
1.676
1.667
1.662
1.676
1.681
1.657
1.657
1.681
1.691
1.691
1.691
1.701
1.706
1.672
1.647
1.652
1.652
1.642
1.632
1.637
1.652
1.647
1.637
1.652
1.672
1.672
1.662
1.662
1.676
1.681
1.662
1.652
1.667
1.667
1.652
1.642
1.652
1.667
1.652
1.642
1.657
1.667
1.657
1.647
1.652
1.672
1.662
1.642
1.652
1.672
1.672
1.662
1.667
1.681
1.681
1.662
1.652
1.672
1.672
1.667
1.657
1.667
1.676
1.662
1.657
1.676
1.691
1.686
1.681
1.686
1.706
1.701
1.681
1.686
1.701
1.696
1.681
1.676
1.691
1.706
1.696
1.701
1.716
1.72
1.711
1.701
1.701
1.701
1.681
1.676
1.696
1.72
1.725
1.725
1.73
1.74
1.725
1.691
1.686
1.691
1.681
1.662
1.647
1.662
1.662
1.642
1.637
1.652
1.657
1.647
1.637
1.647
1.667
1.652
1.637
1.652
1.662
1.652
1.642
1.642
1.657
1.647
1.628
1.637
1.657
1.657
1.647
1.642
1.662
1.662
1.637
1.632
1.652
1.662
1.657
1.652
1.662
1.672
1.647
1.628
1.642
1.657
1.657
1.657
1.672
1.706
1.72
1.725
1.755
1.799
1.823
1.848
1.872
1.911
1.935
1.921
1.916
1.906
1.857
1.779
1.691
1.628
1.574
1.5
1.442
1.427
1.422
1.417
1.413
1.427
1.457
1.466
1.457
1.471
1.505
1.53
1.549
1.569
1.608
1.632
1.628
1.632
1.657
1.667
1.662
1.657
1.662
1.681
1.672
1.662
1.681
1.691
1.686
1.672
1.672
1.681
1.672
1.647
1.657
1.681
1.691
1.691
1.701
1.716
1.725
1.701
1.696
1.706
1.701
1.686
1.676
1.686
1.701
1.691
1.681
1.696
1.711
1.706
1.696
1.701
1.72
1.711
1.691
1.701
1.725
1.73
1.725
1.725
1.735
1.74
1.716
1.716
1.735
1.745
1.745
1.745
1.76
1.769
1.75
1.73
1.74
1.745
1.735
1.725
1.735
1.755
1.76
1.74
1.75
1.769
1.774
1.764
1.764
1.779
1.784
1.769
1.774
1.799
1.804
1.799
1.794
1.799
1.813
1.794
1.779
1.799
1.813
1.813
1.813
1.823
1.843
1.843
1.818
1.823
1.833
1.828
1.818
1.813
1.833
1.843
1.823
1.818
1.833
1.833
1.813
1.794
1.789
1.794
1.774
1.755
1.764
1.769
1.76
1.745
1.735
1.74
1.725
1.696
1.686
1.696
1.686
1.672
1.667
1.681
1.691
1.672
1.662
1.676
1.686
1.672
1.657
1.657
1.662
1.652
1.642
1.662
1.676
1.667
1.652
1.647
1.657
1.647
1.623
1.628
1.647
1.652
1.642
1.642
1.657
1.667
1.642
1.637
1.647
1.657
1.652
1.642
1.647
1.657
1.637
1.628
1.642
1.657
1.657
1.652
1.662
1.681
1.681
1.662
1.667
1.676
1.672
1.662
1.647
1.652
1.652
1.628
1.618
1.637
1.647
1.642
1.642
1.662
1.672
1.652
1.632
1.642
1.662
1.657
1.647
1.652
1.667
1.657
1.637
1.642
1.657
1.652
1.642
1.637
1.657
1.676
1.667
1.667
1.686
1.686
1.676
1.657
1.662
1.667
1.652
1.637
1.652
1.667
1.662
1.652
1.657
1.676
1.676
1.667
1.672
1.686
1.681
1.667
1.662
1.676
1.681
1.657
1.652
1.672
1.681
1.681
1.672
1.676
1.686
1.667
1.647
1.657
1.662
1.657
1.642
1.642
1.657
1.652
1.637
1.647
1.672
1.676
1.676
1.672
1.686
1.691
1.667
1.647
1.662
1.662
1.657
1.652
1.662
1.686
1.676
1.662
1.676
1.686
1.681
1.672
1.676
1.691
1.696
1.681
1.696
1.716
1.711
1.701
1.691
1.706
1.711
1.691
1.691
1.716
1.73
1.73
1.725
1.725
1.73
1.706
1.686
1.701
1.725
1.73
1.73
1.735
1.75
1.745
1.72
1.711
1.716
1.696
1.672
1.657
1.662
1.662
1.637
1.628
1.647
1.657
1.657
1.652
1.662
1.676
1.657
1.642
1.652
1.662
1.652
1.637
1.637
1.652
1.652
1.637
1.647
1.667
1.667
1.657
1.657
1.672
1.681
1.657
1.647
1.657
1.657
1.642
1.632
1.642
1.667
1.662
1.652
1.672
1.691
1.691
1.686
1.696
1.72
1.73
1.73
1.76
1.804
1.838
1.867
1.891
1.931
1.95
1.935
1.921
1.911
1.867
1.799
1.72
1.652
1.598
1.525
1.457
1.427
1.422
1.413
1.408
1.422
1.452
1.461
1.461
1.476
1.51
1.525
1.54
1.554
1.593
1.628
1.628
1.642
1.672
1.686
1.676
1.667
1.676
1.696
1.686
1.681
1.701
1.725
1.73
1.73
1.725
1.735
1.725
1.696
1.691
1.706
1.706
1.701
1.701
1.716
1.725
1.706
1.696
1.711
1.72
1.711
1.696
1.701
1.716
1.706
1.691
1.706
1.72
1.72
1.711
1.716
1.73
1.73
1.706
1.711
1.725
1.72
1.716
1.711
1.73
1.745
1.73
1.72
1.735
1.745
1.74
1.73
1.73
1.74
1.73
1.716
1.73
1.75
1.755
1.755
1.76
1.774
1.774
1.755
1.764
1.784
1.784
1.774
1.774
1.789
1.799
1.779
1.774
1.794
1.808
1.813
1.813
1.828
1.843
1.833
1.813
1.823
1.838
1.833
1.823
1.828
1.848
1.852
1.828
1.833
1.848
1.843
1.828
1.818
1.823
1.828
1.804
1.799
1.813
1.818
1.808
1.794
1.794
1.804
1.789
1.769
1.774
1.779
1.764
1.74
1.73
1.735
1.72
1.686
1.681
1.691
1.696
1.691
1.686
1.696
1.696
1.672
1.657
1.662
1.657
1.637
1.623
1.628
1.642
1.637
1.628
1.647
1.667
1.662
1.647
1.647
1.657
1.657
1.628
1.628
1.642
1.647
1.642
1.642
1.657
1.667
1.647
1.637
1.657
1.657
1.642
1.628
1.628
1.632
1.613
1.598
1.608
1.628
1.632
1.628
1.637
1.662
1.667
1.642
1.642
1.657
1.652
1.642
1.637
1.652
1.657
1.637
1.628
1.642
1.647
1.642
1.632
1.637
1.652
1.637
1.618
1.632
1.652
1.652
1.647
1.647
1.662
1.667
1.647
1.647
1.662
1.662
1.652
1.647
1.662
1.681
1.672
1.662
1.672
1.676
1.662
1.647
1.652
1.662
1.652
1.642
1.657
1.681
1.686
1.686
1.701
1.72
1.706
1.667
1.652
1.667
1.662
1.647
1.637
1.647
1.662
1.652
1.657
1.681
1.691
1.686
1.676
1.676
1.691
1.676
1.662
1.667
1.676
1.662
1.652
1.652
1.672
1.686
1.681
1.696
1.716
1.716
1.706
1.696
1.696
1.696
1.672
1.662
1.676
1.691
1.691
1.691
1.701
1.711
1.701
1.676
1.686
1.706
1.706
1.696
1.691
1.706
1.701
1.676
1.676
1.696
1.701
1.691
1.681
1.691
1.706
1.686
1.672
1.676
1.681
1.672
1.657
1.652
1.657
1.642
1.628
1.637
1.652
1.657
1.647
1.642
1.657
1.657
1.632
1.628
1.642
1.637
1.628
1.628
1.647
1.672
1.662
1.662
1.676
1.681
1.667
1.657
1.652
1.657
1.632
1.608
1.613
1.632
1.642
1.637
1.637
1.652
1.652
1.632
1.632
1.652
1.662
1.667
1.672
1.701
1.735
1.75
1.779
1.828
1.867
1.887
1.896
1.911
1.921
1.887
1.828
1.774
1.716
1.642
1.574
1.51
1.481
1.452
1.413
1.408
1.432
1.442
1.442
1.447
1.471
1.496
1.496
1.51
1.549
1.584
1.603
1.613
1.632
1.662
1.657
1.647
1.652
1.667
1.667
1.657
1.657
1.676
1.676
1.657
1.667
1.686
1.696
1.691
1.686
1.691
1.691
1.667
1.652
1.667
1.672
1.672
1.667
1.676
1.696
1.691
1.676
1.691
1.706
1.701
1.696
1.696
1.716
1.72
1.701
1.696
1.716
1.72
1.716
1.711
1.72
1.73
1.711
1.701
1.716
1.72
1.711
1.701
1.711
1.725
1.72
1.701
1.711
1.73
1.735
1.73
1.73
1.745
1.745
1.725
1.73
1.755
1.76
1.76
1.755
1.764
1.769
1.755
1.745
1.764
1.769
1.764
1.755
1.764
1.789
1.784
1.774
1.789
1.799
1.799
1.794
1.789
1.808
1.813
1.799
1.804
1.828
1.828
1.823
1.808
1.823
1.838
1.818
1.813
1.828
1.838
1.828
1.813
1.818
1.828
1.813
1.789
1.789
1.799
1.794
1.779
1.769
1.779
1.779
1.755
1.745
1.745
1.735
1.716
1.696
1.696
1.706
1.681
1.672
1.686
1.696
1.686
1.676
1.672
1.681
1.657
1.632
1.642
1.652
1.652
1.642
1.642
1.652
1.652
1.632
1.632
1.647
1.652
1.642
1.632
1.642
1.652
1.632
1.623
1.637
1.647
1.647
1.642
1.652
1.667
1.657
1.637
1.637
1.647
1.637
1.628
1.628
1.647
1.652
1.632
1.632
1.657
1.657
1.647
1.632
1.642
1.652
1.642
1.637
1.652
1.662
1.652
1.642
1.642
1.647
1.637
1.613
1.623
1.637
1.642
1.637
1.632
1.642
1.642
1.618
1.618
1.642
1.652
1.652
1.657
1.676
1.691
1.667
1.652
1.662
1.667
1.652
1.642
1.642
1.667
1.662
1.652
1.662
1.676
1.676
1.667
1.662
1.676
1.676
1.647
1.647
1.662
1.667
1.662
1.657
1.676
1.696
1.676
1.667
1.676
1.676
1.657
1.637
1.632
1.652
1.642
1.628
1.642
1.667
1.672
1.672
1.672
1.681
1.672
1.637
1.632
1.647
1.657
1.647
1.642
1.652
1.667
1.662
1.657
1.681
1.691
1.681
1.667
1.662
1.676
1.667
1.642
1.652
1.672
1.676
1.672
1.676
1.691
1.696
1.676
1.667
1.676
1.681
1.672
1.667
1.681
1.701
1.691
1.691
1.716
1.735
1.73
1.716
1.716
1.725
1.711
1.686
1.686
1.701
1.696
1.691
1.696
1.716
1.72
1.701
1.701
1.711
1.701
1.667
1.642
1.647
1.652
1.628
1.613
1.632
1.647
1.652
1.647
1.657
1.672
1.662
1.642
1.647
1.662
1.662
1.662
1.662
1.672
1.667
1.632
1.628
1.642
1.642
1.637
1.632
1.652
1.667
1.657
1.642
1.652
1.662
1.647
1.637
1.637
1.657
1.652
1.647
1.662
1.681
1.676
1.667
1.662
1.681
1.691
1.667
1.676
1.72
1.764
1.799
1.838
1.887
1.935
1.94
1.931
1.931
1.906
1.843
1.76
1.681
1.618
1.549
1.486
1.457
1.447
1.427
1.413
1.417
1.437
1.447
1.432
1.447
1.486
1.52
1.54
1.559
1.593
1.623
1.628
1.623
1.642
1.662
1.662
1.652
1.657
1.672
1.667
1.652
1.662
1.676
1.672
1.662
1.662
1.681
1.696
1.676
1.676
1.701
1.706
1.701
1.691
1.696
1.706
1.676
1.662
1.667
1.686
1.681
1.681
1.691
1.711
1.706
1.691
1.696
1.706
1.706
1.691
1.686
1.706
1.716
1.696
1.691
1.716
1.72
1.711
1.696
1.701
1.716
1.701
1.701
1.716
1.73
1.72
1.716
1.716
1.735
1.735
1.716
1.72
1.74
1.745
1.745
1.745
1.764
1.769
1.745
1.74
1.76
1.764
1.755
1.75
1.76
1.774
1.764
1.755
1.774
1.789
1.789
1.789
1.799
1.818
1.813
1.804
1.823
1.843
1.843
1.823
1.813
1.818
1.813
1.789
1.779
1.794
1.799
1.794
1.799
1.813
1.833
1.818
1.804
1.813
1.818
1.808
1.789
1.784
1.789
1.774
1.75
1.745
1.755
1.755
1.74
1.735
1.745
1.75
1.72
1.701
1.701
1.696
1.681
1.662
1.667
1.681
1.672
1.662
1.676
1.686
1.676
1.662
1.652
1.657
1.642
1.618
1.628
1.647
1.652
1.652
1.652
1.662
1.667
1.647
1.647
1.657
1.652
1.637
1.628
1.632
1.642
1.628
1.613
1.628
1.642
1.637
1.632
1.632
1.652
1.652
1.632
1.637
1.657
1.657
1.657
1.657
1.676
1.676
1.652
1.647
1.662
1.662
1.647
1.628
1.632
1.642
1.628
1.618
1.632
1.642
1.642
1.632
1.628
1.642
1.632
1.618
1.632
1.662
1.676
1.681
1.686
1.696
1.701
1.672
1.657
1.662
1.657
1.642
1.632
1.647
1.662
1.657
1.647
1.667
1.676
1.672
1.657
1.657
1.672
1.667
1.647
1.652
1.672
1.676
1.672
1.681
1.696
1.701
1.672
1.662
1.676
1.676
1.667
1.647
1.642
1.647
1.632
1.613
1.623
1.637
1.632
1.628
1.632
1.662
1.667
1.657
1.667
1.686
1.681
1.676
1.672
1.681
1.686
1.662
1.657
1.676
1.681
1.681
1.676
1.686
1.701
1.681
1.667
1.672
1.676
1.667
1.647
1.642
1.647
1.647
1.632
1.647
1.672
1.686
1.686
1.691
1.711
1.725
1.701
1.686
1.696
1.691
1.676
1.667
1.676
1.701
1.696
1.701
1.72
1.735
1.725
1.711
1.706
1.716
1.706
1.681
1.686
1.711
1.72
1.72
1.72
1.725
1.73
1.706
1.696
1.706
1.711
1.696
1.672
1.672
1.676
1.652
1.632
1.642
1.662
1.662
1.657
1.657
1.672
1.662
1.642
1.642
1.662
1.662
1.652
1.652
1.667
1.676
1.662
1.662
1.672
1.676
1.667
1.652
1.657
1.667
1.642
1.618
1.628
1.642
1.647
1.652
1.662
1.681
1.676
1.657
1.657
1.672
1.667
1.657
1.657
1.681
1.701
1.691
1.706
1.75
1.784
1.808
1.843
1.887
1.935
1.95
1.95
1.965
1.965
1.921
1.848
1.769
1.696
1.613
1.53
1.486
1.466
1.447
1.432
1.432
1.457
1.471
1.461
1.461
1.491
1.51
1.515
1.525
1.559
1.593
1.608
1.618
1.652
1.681
1.686
1.681
1.686
1.706
1.701
1.681
1.686
1.701
1.696
1.681
1.676
1.696
1.701
1.676
1.672
1.691
1.706
1.701
1.701
1.711
1.725
1.711
1.691
1.701
1.706
1.701
1.686
1.686
1.701
1.701
1.681
1.691
1.711
1.716
1.711
1.706
1.72
1.73
1.711
1.701
1.716
1.72
1.716
1.706
1.711
1.725
1.711
1.701
1.711
1.725
1.72
1.72
1.725
1.745
1.745
1.725
1.725
1.745
1.745
1.74
1.745
1.76
1.769
1.755
1.745
1.764
1.774
1.774
1.764
1.769
1.789
1.779
1.769
1.779
1.794
1.794
1.784
1.784
1.799
1.808
1.794
1.804
1.828
1.828
1.818
1.813
1.818
1.823
1.799
1.794
1.813
1.823
1.823
1.818
1.823
1.833
1.818
1.799
1.808
1.828
1.818
1.808
1.808
1.818
1.813
1.784
1.779
1.789
1.779
1.76
1.745
1.745
1.745
1.72
1.706
1.711
1.711
1.701
1.691
1.696
1.711
1.701
1.691
1.701
1.701
1.681
1.657
1.647
1.647
1.632
1.598
1.603
1.632
1.642
1.647
1.647
1.662
1.672
1.652
1.642
1.652
1.657
1.652
1.637
1.642
1.652
1.642
1.628
1.642
1.657
1.662
1.657
1.662
1.681
1.676
1.652
1.642
1.652
1.647
1.637
1.632
1.647
1.662
1.652
1.652
1.672
1.672
1.657
1.642
1.647
1.662
1.657
1.647
1.662
1.676
1.667
1.652
1.642
1.642
1.623
1.588
1.593
1.618
1.632
1.642
1.652
1.672
1.681
1.662
1.652
1.662
1.667
1.657
1.652
1.657
1.676
1.667
1.652
1.657
1.672
1.662
1.652
1.652
1.672
1.672
1.652
1.652
1.672
1.672
1.657
1.647
1.657
1.667
1.652
1.652
1.672
1.676
1.672
1.662
1.667
1.681
1.672
1.657
1.667
1.681
1.676
1.667
1.667
1.681
1.676
1.647
1.642
1.662
1.662
1.652
1.652
1.672
1.691
1.676
1.672
1.691
1.701
1.696
1.681
1.686
1.696
1.681
1.662
1.667
1.686
1.686
1.681
1.681
1.696
1.691
1.662
1.667
1.691
1.691
1.681
1.681
1.701
1.716
1.701
1.691
1.706
1.716
1.706
1.701
1.706
1.72
1.716
1.701
1.711
1.725
1.72
1.711
1.706
1.716
1.711
1.681
1.686
1.701
1.701
1.686
1.676
1.686
1.686
1.662
1.647
1.662
1.667
1.652
1.642
1.647
1.662
1.652
1.632
1.642
1.657
1.657
1.647
1.647
1.657
1.657
1.637
1.637
1.657
1.662
1.652
1.647
1.652
1.662
1.632
1.623
1.642
1.652
1.647
1.637
1.647
1.662
1.652
1.632
1.642
1.652
1.647
1.642
1.642
1.667
1.676
1.667
1.681
1.72
1.745
1.769
1.804
1.857
1.906
1.921
1.935
1.955
1.955
1.926
1.872
1.813
1.75
1.657
1.574
1.525
1.5
1.461
1.427
1.417
1.432
1.437
1.432
1.447
1.481
1.5
1.51
1.525
1.559
1.588
1.593
1.608
1.642
1.662
1.662
1.657
1.667
1.686
1.676
1.657
1.667
1.681
1.672
1.652
1.647
1.662
1.672
1.647
1.652
1.676
1.696
1.696
1.696
1.706
1.716
1.691
1.676
1.691
1.706
1.706
1.701
1.72
1.745
1.74
1.72
1.725
1.73
1.725
1.711
1.711
1.725
1.73
1.716
1.72
1.745
1.745
1.73
1.711
1.711
1.716
1.696
1.686
1.711
1.73
1.73
1.73
1.745
1.76
1.745
1.725
1.725
1.73
1.72
1.706
1.706
1.725
1.735
1.72
1.73
1.75
1.76
1.755
1.755
1.764
1.769
1.75
1.74
1.764
1.784
1.789
1.794
1.813
1.843
1.838
1.818
1.818
1.833
1.823
1.813
1.813
1.828
1.833
1.813
1.818
1.843
1.852
1.843
1.833
1.843
1.852
1.833
1.823
1.833
1.833
1.813
1.794
1.789
1.799
1.784
1.76
1.764
1.779
1.774
1.76
1.75
1.755
1.75
1.716
1.701
1.701
1.691
1.676
1.667
1.676
1.686
1.672
1.662
1.672
1.681
1.667
1.652
1.652
1.662
1.647
1.628
1.632
1.652
1.652
1.637
1.632
1.642
1.642
1.618
1.618
1.632
1.637
1.632
1.628
1.642
1.657
1.637
1.632
1.647
1.657
1.647
1.632
1.632
1.647
1.637
1.623
1.628
1.647
1.642
1.632
1.632
1.647
1.647
1.623
1.628
1.647
1.652
1.652
1.652
1.667
1.681
1.652
1.628
1.632
1.642
1.632
1.628
1.628
1.647
1.652
1.642
1.657
1.672
1.667
1.657
1.647
1.652
1.647
1.623
1.623
1.647
1.652
1.647
1.632
1.637
1.642
1.618
1.608
1.628
1.637
1.632
1.632
1.642
1.662
1.667
1.652
1.657
1.672
1.667
1.662
1.662
1.681
1.686
1.667
1.667
1.681
1.676
1.662
1.647
1.652
1.662
1.642
1.628
1.647
1.662
1.662
1.657
1.667
1.686
1.676
1.657
1.667
1.691
1.691
1.686
1.681
1.696
1.701
1.686
1.691
1.711
1.72
1.711
1.701
1.706
1.711
1.691
1.667
1.676
1.686
1.681
1.676
1.676
1.696
1.691
1.667
1.672
1.681
1.676
1.667
1.667
1.681
1.691
1.667
1.667
1.676
1.676
1.662
1.642
1.647
1.652
1.637
1.628
1.642
1.652
1.647
1.642
1.647
1.667
1.662
1.632
1.628
1.637
1.637
1.637
1.642
1.667
1.681
1.662
1.657
1.672
1.667
1.647
1.632
1.632
1.647
1.637
1.637
1.662
1.686
1.681
1.667
1.662
1.667
1.657
1.632
1.637
1.652
1.657
1.657
1.662
1.681
1.696
1.691
1.711
1.755
1.794
1.818
1.848
1.891
1.926
1.916
1.901
1.896
1.872
1.818
1.745
1.676
1.628
1.559
1.491
1.457
1.447
1.432
1.422
1.417
1.442
1.466
1.466
1.486
1.53
1.559
1.569
1.579
1.603
1.628
1.623
1.618
1.637
1.657
1.662
1.657
1.662
1.681
1.672
1.647
1.652
1.667
1.667
1.662
1.667
1.681
1.691
1.672
1.667
1.681
1.686
1.686
1.681
1.696
1.716
1.701
1.686
1.701
1.716
1.706
1.696
1.691
1.711
1.711
1.691
1.701
1.716
1.716
1.701
1.701
1.711
1.716
1.691
1.686
1.711
1.72
1.716
1.711
1.72
1.735
1.72
1.711
1.725
1.74
1.735
1.725
1.725
1.735
1.73
1.711
1.72
1.745
1.755
1.755
1.75
1.764
1.769
1.745
1.74
1.76
1.764
1.764
1.764
1.784
1.808
1.794
1.779
1.784
1.794
1.789
1.789
1.799
1.823
1.828
1.813
1.828
1.848
1.843
1.833
1.828
1.838
1.848
1.828
1.823
1.838
1.843
1.828
1.818
1.828
1.838
1.823
1.804
1.818
1.828
1.818
1.804
1.794
1.794
1.779
1.75
1.75
1.76
1.755
1.74
1.735
1.74
1.74
1.716
1.701
1.706
1.701
1.686
1.672
1.676
1.686
1.667
1.647
1.657
1.662
1.652
1.637
1.632
1.652
1.647
1.623
1.632
1.647
1.642
1.628
1.628
1.642
1.657
1.642
1.637
1.657
1.662
1.647
1.637
1.642
1.657
1.637
1.623
1.637
1.657
1.652
1.642
1.637
1.647
1.632
1.613
1.618
1.637
1.642
1.642
1.637
1.642
1.642
1.608
1.598
1.618
1.628
1.628
1.632
1.652
1.676
1.667
1.647
1.652
1.662
1.647
1.632
1.628
1.642
1.642
1.628
1.637
1.662
1.662
1.647
1.637
1.647
1.647
1.623
1.613
1.623
1.628
1.623
1.618
1.632
1.652
1.642
1.632
1.652
1.672
1.667
1.652
1.652
1.662
1.662
1.637
1.637
1.657
1.667
1.667
1.667
1.676
1.681
1.652
1.642
1.662
1.667
1.652
1.642
1.647
1.667
1.657
1.642
1.662
1.681
1.681
1.681
1.686
1.696
1.691
1.672
1.672
1.686
1.681
1.667
1.672
1.691
1.711
1.696
1.691
1.701
1.701
1.686
1.676
1.676
1.686
1.676
1.667
1.681
1.706
1.706
1.706
1.706
1.716
1.711
1.691
1.696
1.716
1.716
1.706
1.691
1.696
1.696
1.662
1.642
1.647
1.652
1.642
1.628
1.628
1.642
1.632
1.613
1.628
1.642
1.642
1.637
1.642
1.657
1.652
1.623
1.623
1.642
1.652
1.652
1.657
1.676
1.686
1.662
1.652
1.662
1.662
1.642
1.628
1.628
1.652
1.647
1.642
1.652
1.667
1.662
1.642
1.637
1.652
1.652
1.637
1.647
1.676
1.691
1.706
1.725
1.764
1.804
1.818
1.848
1.891
1.916
1.921
1.921
1.916
1.901
1.833
1.755
1.701
1.647
1.588
1.525
1.481
1.461
1.447
1.422
1.432
1.457
1.476
1.481
1.491
1.52
1.535
1.53
1.54
1.579
1.608
1.618
1.623
1.642
1.672
1.667
1.662
1.676
1.696
1.691
1.681
1.686
1.711
1.72
1.696
1.696
1.706
1.696
1.676
1.662
1.676
1.686
1.672
1.676
1.701
1.72
1.72
1.716
1.716
1.725
1.711
1.691
1.706
1.72
1.716
1.706
1.701
1.711
1.706
1.681
1.681
1.696
1.701
1.696
1.696
1.706
1.716
1.696
1.691
1.706
1.716
1.716
1.711
1.72
1.74
1.735
1.72
1.73
1.74
1.735
1.725
1.725
1.74
1.74
1.72
1.725
1.745
1.755
1.755
1.76
1.774
1.789
1.769
1.764
1.779
1.794
1.789
1.779
1.789
1.799
1.789
1.769
1.779
1.794
1.789
1.784
1.794
1.813
1.828
1.813
1.823
1.833
1.833
1.818
1.813
1.823
1.838
1.823
1.813
1.828
1.838
1.828
1.808
1.808
1.808
1.784
1.764
1.774
1.784
1.779
1.764
1.755
1.755
1.745
1.711
1.706
1.72
1.711
1.701
1.691
1.701
1.706
1.686
1.672
1.681
1.681
1.667
1.657
1.657
1.672
1.657
1.632
1.642
1.652
1.647
1.632
1.632
1.642
1.642
1.618
1.628
1.647
1.657
1.642
1.628
1.632
1.642
1.628
1.623
1.637
1.652
1.652
1.652
1.657
1.667
1.652
1.628
1.632
1.647
1.647
1.637
1.637
1.652
1.652
1.632
1.632
1.647
1.647
1.642
1.637
1.657
1.667
1.642
1.628
1.637
1.642
1.632
1.623
1.628
1.642
1.637
1.618
1.623
1.642
1.642
1.637
1.637
1.657
1.662
1.647
1.652
1.667
1.672
1.657
1.647
1.652
1.667
1.647
1.642
1.652
1.662
1.652
1.647
1.652
1.676
1.667
1.652
1.662
1.681
1.686
1.676
1.672
1.681
1.691
1.672
1.667
1.667
1.662
1.642
1.628
1.632
1.637
1.618
1.608
1.628
1.652
1.652
1.647
1.647
1.662
1.652
1.632
1.647
1.672
1.686
1.681
1.681
1.691
1.686
1.657
1.642
1.652
1.647
1.642
1.642
1.657
1.676
1.667
1.667
1.686
1.691
1.676
1.662
1.667
1.686
1.681
1.662
1.672
1.696
1.701
1.696
1.696
1.711
1.706
1.672
1.667
1.681
1.681
1.672
1.667
1.676
1.691
1.676
1.676
1.696
1.706
1.701
1.696
1.706
1.725
1.716
1.691
1.691
1.696
1.696
1.686
1.681
1.696
1.696
1.672
1.672
1.686
1.686
1.676
1.667
1.667
1.672
1.652
1.637
1.647
1.657
1.647
1.632
1.637
1.657
1.652
1.637
1.647
1.672
1.672
1.657
1.647
1.662
1.667
1.647
1.642
1.657
1.662
1.657
1.647
1.652
1.657
1.637
1.628
1.642
1.662
1.657
1.647
1.652
1.672
1.667
1.642
1.642
1.657
1.662
1.667
1.681
1.72
1.76
1.774
1.813
1.867
1.906
1.931
1.935
1.95
1.95
1.911
1.857
1.813
1.755
1.681
1.608
1.554
1.52
1.471
1.427
1.417
1.432
1.437
1.437
1.447
1.476
1.505
1.505
1.525
1.569
1.593
1.603
1.608
1.628
1.652
1.647
1.637
1.657
1.676
1.676
1.672
1.676
1.691
1.691
1.672
1.686
1.716
1.716
1.706
1.696
1.701
1.696
1.667
1.662
1.676
1.681
1.676
1.676
1.686
1.701
1.686
1.676
1.691
1.706
1.701
1.696
1.696
1.706
1.696
1.672
1.676
1.696
1.696
1.701
1.711
1.735
1.745
1.725
1.725
1.735
1.73
1.711
1.696
1.696
1.711
1.701
1.691
1.711
1.73
1.73
1.735
1.745
1.764
1.755
1.73
1.73
1.745
1.74
1.725
1.72
1.745
1.76
1.75
1.76
1.784
1.794
1.789
1.779
1.789
1.799
1.779
1.76
1.774
1.789
1.784
1.774
1.769
1.784
1.779
1.764
1.789
1.818
1.833
1.833
1.833
1.852
1.857
1.833
1.823
1.828
1.823
1.813
1.804
1.813
1.823
1.808
1.789
1.794
1.799
1.789
1.784
1.789
1.804
1.794
1.769
1.764
1.769
1.755
1.73
1.711
1.711
1.706
1.686
1.676
1.691
1.701
1.686
1.662
1.657
1.662
1.647
1.637
1.652
1.672
1.672
1.667
1.672
1.691
1.676
1.652
1.652
1.662
1.657
1.647
1.642
1.657
1.667
1.647
1.642
1.657
1.662
1.657
1.652
1.662
1.672
1.657
1.647
1.657
1.667
1.657
1.642
1.637
1.647
1.632
1.608
1.618
1.637
1.652
1.647
1.652
1.676
1.686
1.662
1.647
1.647
1.642
1.632
1.628
1.637
1.657
1.647
1.642
1.657
1.672
1.667
1.657
1.657
1.672
1.657
1.632
1.632
1.657
1.657
1.647
1.642
1.652
1.662
1.642
1.637
1.647
1.652
1.647
1.637
1.642
1.657
1.647
1.637
1.652
1.667
1.662
1.652
1.657
1.672
1.676
1.662
1.667
1.676
1.672
1.662
1.642
1.647
1.652
1.642
1.647
1.672
1.686
1.681
1.672
1.676
1.686
1.667
1.647
1.652
1.667
1.662
1.657
1.667
1.681
1.676
1.647
1.647
1.662
1.667
1.662
1.662
1.672
1.676
1.652
1.642
1.652
1.657
1.652
1.652
1.662
1.686
1.681
1.667
1.681
1.691
1.686
1.672
1.667
1.676
1.667
1.642
1.647
1.667
1.667
1.667
1.667
1.691
1.701
1.681
1.681
1.701
1.711
1.696
1.686
1.691
1.706
1.696
1.681
1.691
1.706
1.706
1.701
1.706
1.725
1.72
1.696
1.701
1.716
1.716
1.701
1.691
1.701
1.706
1.686
1.686
1.706
1.72
1.72
1.711
1.711
1.72
1.696
1.667
1.667
1.672
1.657
1.642
1.637
1.652
1.652
1.628
1.632
1.647
1.652
1.642
1.637
1.657
1.672
1.652
1.652
1.672
1.681
1.672
1.662
1.662
1.676
1.662
1.642
1.652
1.672
1.667
1.657
1.657
1.667
1.662
1.642
1.642
1.662
1.662
1.652
1.642
1.657
1.667
1.652
1.652
1.676
1.696
1.716
1.735
1.779
1.838
1.867
1.882
1.921
1.95
1.95
1.94
1.926
1.906
1.857
1.769
1.701
1.657
1.603
1.54
1.491
1.471
1.461
1.432
1.427
1.447
1.466
1.466
1.466
1.486
1.52
1.535
1.544
1.579
1.623
1.642
1.657
1.667
1.681
1.676
1.652
1.652
1.672
1.672
1.662
1.657
1.676
1.696
1.681
1.681
1.696
1.706
1.696
1.686
1.691
1.706
1.696
1.681
1.691
1.711
1.711
1.696
1.696
1.706
1.706
1.681
1.686
1.711
1.72
1.725
1.73
1.745
1.75
1.725
1.716
1.725
1.73
1.72
1.706
1.711
1.72
1.711
1.691
1.701
1.72
1.72
1.716
1.716
1.74
1.745
1.735
1.735
1.76
1.769
1.76
1.745
1.75
1.75
1.725
1.72
1.735
1.745
1.74
1.735
1.745
1.764
1.76
1.75
1.76
1.774
1.769
1.769
1.774
1.799
1.808
1.799
1.808
1.833
1.843
1.833
1.823
1.828
1.838
1.818
1.808
1.818
1.823
1.813
1.808
1.818
1.838
1.833
1.813
1.823
1.838
1.833
1.823
1.808
1.818
1.813
1.784
1.779
1.789
1.794
1.784
1.774
1.784
1.784
1.76
1.74
1.745
1.745
1.735
1.72
1.725
1.74
1.725
1.696
1.696
1.701
1.691
1.672
1.662
1.672
1.667
1.647
1.657
1.676
1.681
1.667
1.657
1.667
1.672
1.647
1.632
1.647
1.652
1.652
1.652
1.662
1.676
1.667
1.647
1.657
1.672
1.667
1.652
1.647
1.662
1.667
1.642
1.642
1.657
1.662
1.652
1.647
1.657
1.667
1.642
1.628
1.642
1.652
1.642
1.637
1.652
1.672
1.667
1.642
1.647
1.662
1.657
1.642
1.632
1.642
1.647
1.632
1.642
1.662
1.667
1.657
1.647
1.662
1.667
1.647
1.632
1.642
1.652
1.647
1.637
1.642
1.662
1.657
1.647
1.657
1.672
1.662
1.647
1.642
1.657
1.657
1.628
1.628
1.652
1.662
1.667
1.672
1.686
1.701
1.681
1.667
1.676
1.686
1.676
1.662
1.657
1.667
1.657
1.642
1.647
1.667
1.667
1.657
1.662
1.686
1.691
1.667
1.662
1.681
1.681
1.672
1.662
1.667
1.681
1.667
1.657
1.676
1.696
1.696
1.686
1.686
1.701
1.691
1.672
1.681
1.701
1.701
1.696
1.701
1.72
1.73
1.711
1.706
1.72
1.72
1.711
1.696
1.701
1.711
1.696
1.681
1.701
1.72
1.716
1.706
1.706
1.711
1.696
1.672
1.676
1.696
1.696
1.686
1.681
1.696
1.696
1.667
1.652
1.652
1.642
1.628
1.613
1.628
1.647
1.642
1.642
1.657
1.676
1.676
1.662
1.662
1.667
1.657
1.632
1.632
1.647
1.647
1.637
1.637
1.657
1.662
1.637
1.628
1.647
1.652
1.652
1.652
1.667
1.686
1.672
1.662
1.676
1.691
1.681
1.667
1.667
1.686
1.691
1.691
1.725
1.774
1.813
1.843
1.882
1.931
1.96
1.955
1.95
1.94
1.901
1.828
1.75
1.681
1.628
1.554
1.486
1.457
1.437
1.422
1.417
1.432
1.461
1.476
1.476
1.5
1.535
1.559
1.569
1.574
1.603
1.618
1.608
1.618
1.642
1.647
1.647
1.652
1.667
1.686
1.681
1.672
1.691
1.711
1.711
1.701
1.701
1.716
1.706
1.681
1.686
1.701
1.706
1.696
1.691
1.706
1.711
1.691
1.686
1.701
1.711
1.706
1.696
1.706
1.716
1.696
1.681
1.696
1.711
1.706
1.696
1.701
1.725
1.73
1.716
1.725
1.74
1.745
1.735
1.73
1.74
1.745
1.725
1.716
1.725
1.73
1.725
1.72
1.735
1.75
1.73
1.72
1.74
1.755
1.75
1.745
1.745
1.76
1.75
1.725
1.735
1.76
1.769
1.769
1.774
1.789
1.804
1.789
1.794
1.813
1.823
1.813
1.808
1.813
1.828
1.818
1.813
1.828
1.843
1.843
1.838
1.848
1.862
1.852
1.828
1.828
1.843
1.833
1.823
1.813
1.823
1.833
1.813
1.808
1.823
1.828
1.818
1.808
1.808
1.808
1.784
1.76
1.769
1.774
1.764
1.745
1.735
1.745
1.735
1.711
1.706
1.716
1.706
1.691
1.681
1.691
1.691
1.667
1.657
1.672
1.672
1.657
1.647
1.652
1.657
1.637
1.623
1.642
1.662
1.662
1.657
1.657
1.667
1.662
1.637
1.632
1.647
1.637
1.628
1.623
1.642
1.657
1.637
1.637
1.652
1.662
1.652
1.642
1.652
1.662
1.647
1.632
1.642
1.662
1.657
1.652
1.657
1.672
1.667
1.647
1.647
1.667
1.672
1.667
1.657
1.667
1.667
1.637
1.628
1.642
1.647
1.642
1.628
1.632
1.647
1.632
1.613
1.623
1.628
1.618
1.608
1.618
1.652
1.667
1.652
1.662
1.676
1.667
1.647
1.642
1.652
1.652
1.632
1.632
1.657
1.676
1.676
1.667
1.672
1.686
1.672
1.652
1.667
1.676
1.676
1.662
1.662
1.672
1.667
1.647
1.652
1.672
1.672
1.662
1.657
1.667
1.676
1.652
1.642
1.662
1.676
1.672
1.667
1.676
1.691
1.676
1.667
1.676
1.696
1.691
1.681
1.681
1.691
1.686
1.657
1.657
1.672
1.681
1.686
1.691
1.716
1.73
1.716
1.706
1.716
1.716
1.701
1.686
1.681
1.696
1.686
1.681
1.696
1.711
1.706
1.701
1.701
1.711
1.706
1.681
1.681
1.691
1.686
1.676
1.667
1.676
1.681
1.657
1.647
1.662
1.667
1.662
1.647
1.652
1.667
1.652
1.628
1.632
1.642
1.642
1.637
1.642
1.662
1.672
1.657
1.662
1.681
1.681
1.667
1.652
1.657
1.662
1.642
1.637
1.657
1.672
1.662
1.652
1.657
1.667
1.657
1.647
1.667
1.691
1.691
1.676
1.672
1.676
1.667
1.637
1.642
1.672
1.696
1.72
1.76
1.823
1.877
1.891
1.906
1.931
1.931
1.906
1.872
1.833
1.789
1.711
1.632
1.588
1.554
1.51
1.471
1.452
1.461
1.466
1.457
1.466
1.491
1.505
1.505
1.515
1.549
1.574
1.574
1.584
1.618
1.642
1.647
1.652
1.667
1.686
1.686
1.676
1.691
1.701
1.691
1.672
1.667
1.676
1.676
1.647
1.647
1.672
1.681
1.681
1.681
1.701
1.711
1.686
1.672
1.686
1.701
1.696
1.691
1.696
1.711
1.701
1.681
1.691
1.701
1.696
1.686
1.686
1.701
1.711
1.696
1.711
1.735
1.735
1.725
1.716
1.72
1.725
1.701
1.681
1.696
1.706
1.706
1.706
1.716
1.73
1.72
1.711
1.716
1.73
1.725
1.72
1.72
1.74
1.745
1.73
1.735
1.75
1.75
1.74
1.74
1.75
1.764
1.755
1.745
1.76
1.774
1.774
1.769
1.774
1.794
1.789
1.774
1.789
1.818
1.813
1.808
1.808
1.823
1.823
1.804
1.804
1.823
1.828
1.818
1.813
1.828
1.838
1.813
1.799
1.808
1.818
1.804
1.794
1.794
1.804
1.789
1.76
1.769
1.779
1.769
1.755
1.75
1.755
1.75
1.72
1.711
1.716
1.711
1.696
1.681
1.686
1.686
1.662
1.647
1.657
1.667
1.657
1.642
1.647
1.667
1.657
1.642
1.647
1.657
1.647
1.632
1.623
1.632
1.632
1.608
1.608
1.632
1.647
1.647
1.642
1.652
1.662
1.642
1.628
1.637
1.642
1.632
1.623
1.628
1.642
1.632
1.613
1.628
1.647
1.647
1.642
1.637
1.652
1.652
1.623
1.623
1.642
1.647
1.647
1.647
1.662
1.676
1.662
1.652
1.662
1.667
1.652
1.632
1.632
1.647
1.632
1.608
1.618
1.628
1.628
1.618
1.618
1.632
1.642
1.628
1.632
1.657
1.667
1.662
1.657
1.662
1.667
1.642
1.628
1.637
1.647
1.642
1.632
1.642
1.662
1.662
1.642
1.647
1.657
1.657
1.657
1.662
1.681
1.681
1.657
1.657
1.672
1.676
1.662
1.652
1.657
1.672
1.652
1.642
1.662
1.672
1.667
1.652
1.662
1.681
1.672
1.647
1.652
1.657
1.652
1.637
1.632
1.647
1.652
1.637
1.647
1.672
1.686
1.681
1.667
1.672
1.676
1.647
1.632
1.647
1.667
1.667
1.667
1.672
1.686
1.676
1.652
1.657
1.672
1.667
1.662
1.652
1.672
1.681
1.667
1.676
1.701
1.711
1.696
1.676
1.676
1.686
1.662
1.652
1.662
1.681
1.686
1.691
1.701
1.72
1.716
1.691
1.691
1.701
1.686
1.672
1.672
1.691
1.711
1.696
1.701
1.72
1.73
1.716
1.706
1.716
1.716
1.691
1.662
1.667
1.667
1.652
1.637
1.632
1.642
1.632
1.613
1.623
1.642
1.652
1.657
1.657
1.672
1.672
1.647
1.642
1.652
1.652
1.637
1.628
1.637
1.657
1.647
1.637
1.652
1.662
1.652
1.637
1.632
1.642
1.632
1.608
1.618
1.642
1.647
1.642
1.642
1.662
1.667
1.642
1.637
1.657
1.672
1.672
1.681
1.716
1.75
1.774
1.808
1.867
1.916
1.94
1.95
1.955
1.95
1.911
1.838
1.779
1.72
1.642
1.574
1.52
1.5
1.481
1.447
1.432
1.447
1.452
1.452
1.457
1.481
1.505
1.505
1.505
1.535
1.559
1.569
1.579
1.608
1.642
1.652
1.642
1.662
1.686
1.686
1.676
1.667
1.672
1.672
1.652
1.652
1.676
1.696
1.696
1.691
1.701
1.706
1.686
1.667
1.676
1.686
1.686
1.681
1.681
1.696
1.691
1.672
1.672
1.686
1.681
1.672
1.672
1.691
1.711
1.701
1.706
1.725
1.73
1.72
1.706
1.706
1.716
1.696
1.681
1.696
1.711
1.711
1.711
1.72
1.74
1.74
1.725
1.725
1.735
1.725
1.711
1.706
1.72
1.73
1.711
1.706
1.73
1.74
1.735
1.725
1.73
1.735
1.72
1.711
1.735
1.76
1.764
1.769
1.784
1.804
1.794
1.769
1.779
1.794
1.789
1.774
1.769
1.784
1.799
1.789
1.789
1.808
1.818
1.813
1.799
1.808
1.823
1.808
1.794
1.804
1.818
1.818
1.813
1.818
1.828
1.823
1.799
1.804
1.808
1.799
1.779
1.764
1.764
1.76
1.73
1.72
1.735
1.735
1.725
1.716
1.716
1.725
1.701
1.676
1.681
1.686
1.676
1.662
1.657
1.676
1.672
1.652
1.657
1.676
1.672
1.662
1.657
1.672
1.676
1.647
1.628
1.632
1.632
1.623
1.613
1.618
1.628
1.618
1.603
1.623
1.647
1.647
1.642
1.632
1.637
1.628
1.603
1.608
1.632
1.642
1.637
1.642
1.667
1.686
1.672
1.662
1.672
1.667
1.652
1.637
1.637
1.642
1.628
1.608
1.623
1.637
1.637
1.632
1.642
1.657
1.652
1.623
1.623
1.637
1.637
1.628
1.623
1.637
1.652
1.642
1.642
1.667
1.681
1.676
1.662
1.667
1.672
1.652
1.628
1.632
1.642
1.642
1.637
1.647
1.676
1.681
1.657
1.657
1.667
1.662
1.647
1.632
1.642
1.652
1.637
1.637
1.657
1.672
1.662
1.652
1.657
1.667
1.652
1.642
1.662
1.676
1.672
1.662
1.652
1.662
1.652
1.628
1.637
1.662
1.667
1.667
1.667
1.681
1.696
1.672
1.657
1.667
1.667
1.657
1.647
1.662
1.676
1.662
1.647
1.662
1.676
1.672
1.662
1.662
1.681
1.686
1.657
1.652
1.667
1.667
1.652
1.647
1.657
1.672
1.657
1.662
1.686
1.696
1.681
1.667
1.667
1.676
1.667
1.652
1.676
1.701
1.711
1.711
1.716
1.735
1.73
1.701
1.686
1.691
1.686
1.681
1.681
1.701
1.72
1.711
1.706
1.72
1.73
1.72
1.701
1.701
1.711
1.696
1.681
1.686
1.701
1.696
1.681
1.672
1.676
1.667
1.642
1.647
1.667
1.672
1.667
1.662
1.676
1.681
1.652
1.642
1.652
1.662
1.647
1.637
1.652
1.676
1.672
1.652
1.662
1.667
1.662
1.642
1.637
1.647
1.642
1.618
1.623
1.652
1.667
1.662
1.652
1.662
1.667
1.647
1.637
1.657
1.672
1.681
1.686
1.711
1.745
1.75
1.755
1.794
1.838
1.867
1.887
1.911
1.945
1.955
1.935
1.911
1.887
1.823
1.735
1.657
1.598
1.549
1.481
1.437
1.437
1.447
1.447
1.447
1.461
1.491
1.496
1.496
1.52
1.549
1.569
1.584
1.603
1.642
1.657
1.652
1.667
1.691
1.696
1.686
1.681
1.686
1.691
1.667
1.657
1.676
1.691
1.696
1.696
1.706
1.72
1.711
1.691
1.701
1.711
1.706
1.696
1.696
1.711
1.711
1.686
1.676
1.696
1.696
1.691
1.686
1.701
1.716
1.706
1.701
1.72
1.74
1.74
1.735
1.73
1.735
1.716
1.696
1.696
1.711
1.711
1.706
1.711
1.735
1.75
1.735
1.74
1.76
1.764
1.76
1.755
1.76
1.769
1.745
1.72
1.73
1.73
1.72
1.716
1.73
1.755
1.76
1.755
1.774
1.789
1.779
1.769
1.769
1.784
1.789
1.774
1.784
1.818
1.828
1.828
1.828
1.838
1.843
1.818
1.804
1.818
1.828
1.818
1.813
1.823
1.838
1.828
1.813
1.823
1.843
1.843
1.833
1.828
1.843
1.843
1.813
1.804
1.813
1.808
1.794
1.779
1.779
1.784
1.764
1.75
1.76
1.769
1.76
1.75
1.75
1.76
1.74
1.711
1.706
1.711
1.696
1.676
1.667
1.681
1.681
1.657
1.652
1.672
1.672
1.662
1.652
1.657
1.667
1.647
1.637
1.657
1.672
1.672
1.667
1.672
1.691
1.676
1.652
1.657
1.672
1.672
1.662
1.657
1.667
1.662
1.637
1.637
1.652
1.652
1.647
1.647
1.667
1.686
1.672
1.657
1.672
1.676
1.662
1.647
1.647
1.662
1.657
1.642
1.657
1.672
1.672
1.667
1.662
1.672
1.676
1.652
1.652
1.667
1.672
1.662
1.657
1.662
1.672
1.647
1.632
1.647
1.657
1.652
1.642
1.652
1.676
1.667
1.642
1.647
1.662
1.662
1.642
1.632
1.647
1.652
1.637
1.637
1.652
1.657
1.652
1.652
1.662
1.676
1.667
1.662
1.676
1.696
1.691
1.681
1.676
1.686
1.681
1.662
1.672
1.681
1.676
1.667
1.667
1.686
1.691
1.667
1.662
1.681
1.691
1.686
1.676
1.681
1.686
1.662
1.652
1.672
1.686
1.681
1.672
1.667
1.681
1.672
1.652
1.662
1.686
1.686
1.676
1.676
1.696
1.701
1.672
1.667
1.681
1.691
1.686
1.686
1.706
1.73
1.72
1.711
1.725
1.74
1.725
1.711
1.706
1.716
1.711
1.691
1.696
1.706
1.701
1.691
1.691
1.701
1.706
1.686
1.686
1.701
1.701
1.686
1.667
1.662
1.667
1.647
1.632
1.647
1.657
1.657
1.652
1.662
1.681
1.676
1.652
1.647
1.662
1.652
1.637
1.632
1.642
1.647
1.628
1.632
1.652
1.657
1.652
1.647
1.652
1.667
1.652
1.642
1.662
1.681
1.681
1.672
1.672
1.672
1.657
1.632
1.632
1.652
1.662
1.672
1.681
1.716
1.74
1.745
1.764
1.808
1.848
1.872
1.891
1.921
1.94
1.916
1.877
1.843
1.789
1.716
1.637
1.579
1.549
1.51
1.471
1.457
1.457
1.457
1.452
1.457
1.481
1.505
1.505
1.53
1.569
1.593
1.598
1.603
1.618
1.632
1.613
1.598
1.618
1.647
1.657
1.662
1.672
1.696
1.701
1.681
1.691
1.706
1.706
1.701
1.691
1.701
1.701
1.676
1.667
1.681
1.686
1.681
1.676
1.691
1.711
1.701
1.691
1.706
1.716
1.711
1.701
1.701
1.716
1.711
1.691
1.691
1.711
1.716
1.711
1.706
1.72
1.73
1.711
1.706
1.72
1.73
1.73
1.72
1.725
1.735
1.716
1.696
1.696
1.701
1.701
1.706
1.72
1.75
1.755
1.74
1.755
1.779
1.784
1.769
1.76
1.76
1.764
1.74
1.74
1.76
1.769
1.764
1.76
1.774
1.794
1.789
1.779
1.799
1.818
1.813
1.808
1.808
1.828
1.833
1.813
1.818
1.838
1.833
1.823
1.823
1.843
1.852
1.828
1.818
1.833
1.838
1.833
1.823
1.823
1.833
1.813
1.794
1.804
1.818
1.808
1.794
1.784
1.794
1.784
1.76
1.75
1.755
1.745
1.725
1.716
1.725
1.735
1.711
1.701
1.711
1.711
1.696
1.676
1.676
1.676
1.657
1.632
1.642
1.652
1.652
1.642
1.642
1.652
1.647
1.628
1.637
1.662
1.662
1.657
1.652
1.662
1.667
1.642
1.632
1.642
1.647
1.642
1.637
1.642
1.657
1.642
1.628
1.637
1.647
1.647
1.637
1.637
1.652
1.652
1.628
1.632
1.647
1.642
1.632
1.628
1.642
1.647
1.628
1.623
1.637
1.637
1.628
1.618
1.623
1.642
1.632
1.618
1.632
1.652
1.652
1.652
1.652
1.672
1.672
1.647
1.652
1.662
1.662
1.647
1.632
1.642
1.647
1.628
1.623
1.642
1.657
1.657
1.657
1.662
1.672
1.652
1.632
1.642
1.662
1.662
1.652
1.662
1.676
1.676
1.657
1.652
1.662
1.657
1.642
1.637
1.652
1.667
1.652
1.657
1.676
1.691
1.691
1.672
1.667
1.672
1.647
1.628
1.632
1.647
1.647
1.647
1.657
1.676
1.676
1.657
1.657
1.667
1.662
1.647
1.637
1.647
1.657
1.642
1.637
1.657
1.672
1.667
1.662
1.672
1.691
1.681
1.667
1.672
1.681
1.676
1.662
1.657
1.672
1.676
1.662
1.676
1.706
1.716
1.711
1.706
1.716
1.725
1.706
1.696
1.706
1.711
1.706
1.696
1.701
1.711
1.696
1.676
1.686
1.696
1.696
1.691
1.686
1.696
1.696
1.672
1.667
1.676
1.672
1.662
1.657
1.672
1.681
1.662
1.652
1.667
1.681
1.672
1.657
1.652
1.662
1.647
1.623
1.628
1.642
1.637
1.623
1.623
1.637
1.637
1.613
1.613
1.632
1.637
1.637
1.632
1.647
1.652
1.632
1.623
1.637
1.647
1.637
1.628
1.632
1.652
1.647
1.637
1.652
1.667
1.662
1.662
1.672
1.716
1.745
1.764
1.808
1.872
1.916
1.94
1.95
1.955
1.94
1.877
1.808
1.75
1.686
1.608
1.544
1.5
1.486
1.457
1.432
1.442
1.466
1.471
1.466
1.476
1.496
1.51
1.5
1.51
1.54
1.564
1.579
1.598
1.628
1.652
1.647
1.647
1.667
1.676
1.672
1.657
1.662
1.676
1.672
1.657
1.672
1.691
1.686
1.676
1.672
1.681
1.681
1.657
1.662
1.686
1.696
1.696
1.691
1.706
1.711
1.686
1.672
1.681
1.691
1.691
1.691
1.706
1.725
1.711
1.696
1.706
1.716
1.706
1.696
1.691
1.711
1.716
1.701
1.701
1.716
1.716
1.701
1.701
1.716
1.73
1.716
1.711
1.725
1.735
1.725
1.716
1.716
1.725
1.716
1.701
1.716
1.74
1.745
1.74
1.74
1.755
1.755
1.735
1.74
1.755
1.76
1.755
1.75
1.76
1.769
1.755
1.75
1.769
1.784
1.784
1.784
1.794
1.813
1.804
1.789
1.804
1.828
1.823
1.813
1.804
1.818
1.823
1.799
1.799
1.813
1.818
1.813
1.808
1.823
1.833
1.808
1.794
1.799
1.804
1.799
1.784
1.779
1.784
1.764
1.735
1.735
1.74
1.725
1.711
1.701
1.711
1.711
1.681
1.676
1.691
1.696
1.686
1.676
1.676
1.686
1.662
1.647
1.657
1.667
1.657
1.647
1.652
1.676
1.672
1.652
1.652
1.657
1.642
1.628
1.618
1.637
1.652
1.642
1.647
1.667
1.672
1.672
1.662
1.667
1.672
1.642
1.628
1.637
1.647
1.642
1.642
1.647
1.662
1.647
1.623
1.632
1.652
1.647
1.642
1.637
1.652
1.657
1.637
1.632
1.652
1.657
1.647
1.632
1.637
1.642
1.623
1.613
1.628
1.642
1.647
1.642
1.652
1.672
1.667
1.647
1.652
1.662
1.652
1.637
1.632
1.637
1.637
1.618
1.623
1.647
1.657
1.652
1.657
1.676
1.696
1.681
1.662
1.672
1.676
1.667
1.652
1.657
1.672
1.667
1.652
1.662
1.681
1.676
1.667
1.657
1.662
1.662
1.642
1.642
1.662
1.672
1.662
1.652
1.662
1.672
1.657
1.642
1.657
1.667
1.667
1.657
1.667
1.681
1.676
1.652
1.652
1.667
1.657
1.652
1.647
1.662
1.667
1.652
1.657
1.676
1.676
1.662
1.652
1.657
1.667
1.652
1.642
1.657
1.672
1.672
1.667
1.676
1.691
1.686
1.662
1.667
1.676
1.672
1.662
1.657
1.672
1.676
1.652
1.652
1.672
1.686
1.686
1.686
1.696
1.711
1.691
1.672
1.676
1.681
1.672
1.662
1.667
1.686
1.691
1.681
1.696
1.72
1.725
1.716
1.711
1.72
1.716
1.681
1.672
1.686
1.686
1.681
1.672
1.686
1.711
1.706
1.696
1.711
1.716
1.706
1.686
1.681
1.686
1.672
1.642
1.642
1.657
1.657
1.647
1.642
1.657
1.662
1.637
1.632
1.652
1.657
1.642
1.632
1.637
1.652
1.637
1.628
1.642
1.657
1.662
1.652
1.657
1.667
1.657
1.632
1.637
1.652
1.647
1.632
1.628
1.642
1.647
1.628
1.632
1.657
1.667
1.662
1.662
1.676
1.696
1.686
1.681
1.711
1.75
1.774
1.804
1.843
1.896
1.926
1.931
1.95
1.96
1.94
1.887
1.813
1.755
1.681
1.593
1.53
1.5
1.476
1.452
1.437
1.442
1.457
1.442
1.432
1.452
1.471
1.486
1.5
1.53
1.579
1.598
1.608
1.632
1.662
1.672
1.662
1.662
1.681
1.696
1.676
1.667
1.681
1.686
1.681
1.681
1.686
1.691
1.672
1.657
1.672
1.691
1.691
1.691
1.701
1.72
1.725
1.706
1.706
1.725
1.716
1.701
1.691
1.696
1.701
1.681
1.676
1.696
1.711
1.706
1.691
1.696
1.706
1.686
1.676
1.691
1.706
1.701
1.696
1.701
1.72
1.72
1.701
1.706
1.72
1.716
1.711
1.711
1.73
1.74
1.72
1.716
1.725
1.73
1.725
1.72
1.73
1.745
1.735
1.73
1.75
1.774
1.784
1.779
1.779
1.784
1.774
1.745
1.74
1.75
1.75
1.745
1.745
1.769
1.794
1.789
1.799
1.823
1.828
1.818
1.808
1.813
1.828
1.813
1.789
1.799
1.818
1.818
1.813
1.818
1.828
1.823
1.804
1.804
1.813
1.808
1.789
1.779
1.784
1.794
1.774
1.764
1.779
1.779
1.764
1.75
1.74
1.74
1.716
1.691
1.701
1.711
1.711
1.701
1.701
1.711
1.701
1.672
1.667
1.681
1.681
1.672
1.662
1.681
1.691
1.672
1.657
1.662
1.657
1.642
1.632
1.637
1.647
1.637
1.623
1.637
1.652
1.652
1.647
1.642
1.657
1.652
1.632
1.637
1.662
1.662
1.652
1.647
1.662
1.672
1.647
1.632
1.642
1.647
1.642
1.632
1.642
1.662
1.652
1.637
1.647
1.657
1.647
1.632
1.628
1.647
1.652
1.637
1.647
1.672
1.681
1.676
1.672
1.681
1.681
1.657
1.642
1.652
1.657
1.642
1.632
1.637
1.647
1.632
1.618
1.628
1.637
1.632
1.623
1.623
1.642
1.647
1.632
1.642
1.662
1.667
1.662
1.657
1.667
1.676
1.647
1.637
1.652
1.667
1.662
1.647
1.652
1.672
1.662
1.652
1.667
1.681
1.676
1.672
1.672
1.686
1.672
1.637
1.628
1.647
1.652
1.647
1.647
1.667
1.686
1.676
1.676
1.696
1.701
1.691
1.676
1.676
1.691
1.676
1.652
1.657
1.672
1.667
1.657
1.652
1.667
1.672
1.652
1.652
1.672
1.672
1.667
1.657
1.672
1.681
1.657
1.652
1.667
1.681
1.676
1.667
1.672
1.691
1.676
1.657
1.667
1.686
1.691
1.686
1.691
1.711
1.716
1.696
1.696
1.716
1.72
1.716
1.706
1.716
1.725
1.711
1.706
1.72
1.725
1.72
1.711
1.716
1.73
1.72
1.701
1.706
1.716
1.706
1.686
1.676
1.681
1.676
1.652
1.647
1.667
1.667
1.657
1.652
1.667
1.681
1.662
1.647
1.657
1.667
1.657
1.647
1.652
1.667
1.657
1.632
1.642
1.662
1.662
1.652
1.647
1.657
1.652
1.628
1.632
1.647
1.652
1.652
1.652
1.667
1.676
1.662
1.652
1.672
1.676
1.672
1.662
1.667
1.686
1.681
1.667
1.686
1.72
1.745
1.76
1.789
1.833
1.867
1.877
1.901
1.926
1.931
1.906
1.867
1.828
1.779
1.701
1.623
1.579
1.535
1.491
1.461
1.452
1.457
1.442
1.427
1.442
1.471
1.481
1.491
1.515
1.559
1.588
1.588
1.608
1.637
1.652
1.647
1.647
1.662
1.672
1.662
1.657
1.681
1.696
1.691
1.676
1.676
1.696
1.686
1.672
1.681
1.696
1.691
1.686
1.691
1.711
1.716
1.691
1.691
1.706
1.706
1.701
1.696
1.706
1.716
1.696
1.681
1.696
1.706
1.701
1.696
1.701
1.72
1.716
1.706
1.72
1.74
1.745
1.74
1.745
1.76
1.76
1.725
1.72
1.73
1.735
1.725
1.72
1.725
1.74
1.725
1.72
1.73
1.74
1.73
1.725
1.735
1.764
1.764
1.745
1.755
1.774
1.774
1.769
1.769
1.784
1.789
1.769
1.774
1.804
1.818
1.818
1.808
1.823
1.828
1.804
1.784
1.794
1.799
1.789
1.774
1.774
1.794
1.784
1.774
1.789
1.818
1.823
1.818
1.818
1.838
1.843
1.828
1.828
1.843
1.843
1.828
1.818
1.823
1.828
1.808
1.794
1.804
1.813
1.804
1.789
1.774
1.779
1.76
1.73
1.725
1.735
1.725
1.706
1.696
1.706
1.711
1.686
1.676
1.691
1.696
1.681
1.672
1.681
1.691
1.672
1.652
1.652
1.652
1.632
1.618
1.618
1.632
1.637
1.623
1.637
1.662
1.667
1.657
1.657
1.662
1.662
1.632
1.623
1.642
1.647
1.647
1.642
1.652
1.662
1.647
1.632
1.652
1.667
1.657
1.642
1.647
1.662
1.652
1.628
1.637
1.657
1.662
1.662
1.667
1.676
1.672
1.637
1.628
1.637
1.637
1.628
1.628
1.637
1.652
1.632
1.628
1.647
1.657
1.647
1.637
1.642
1.667
1.662
1.642
1.647
1.662
1.662
1.652
1.647
1.662
1.672
1.652
1.647
1.667
1.672
1.672
1.662
1.667
1.676
1.662
1.647
1.657
1.662
1.647
1.632
1.642
1.667
1.676
1.672
1.686
1.706
1.701
1.686
1.672
1.676
1.667
1.632
1.618
1.632
1.642
1.647
1.657
1.681
1.711
1.701
1.686
1.701
1.711
1.701
1.681
1.667
1.676
1.662
1.647
1.662
1.686
1.691
1.686
1.691
1.706
1.711
1.686
1.676
1.691
1.701
1.696
1.686
1.701
1.711
1.696
1.686
1.696
1.701
1.691
1.686
1.686
1.711
1.706
1.691
1.701
1.725
1.725
1.716
1.706
1.706
1.696
1.662
1.647
1.657
1.652
1.637
1.618
1.623
1.637
1.637
1.632
1.662
1.681
1.681
1.672
1.676
1.691
1.676
1.637
1.628
1.632
1.628
1.618
1.623
1.637
1.652
1.632
1.632
1.647
1.652
1.642
1.632
1.637
1.652
1.642
1.632
1.642
1.657
1.652
1.642
1.642
1.652
1.647
1.628
1.637
1.662
1.676
1.686
1.711
1.745
1.764
1.76
1.779
1.823
1.857
1.872
1.877
1.896
1.906
1.877
1.823
1.779
1.73
1.657
1.588
1.54
1.51
1.471
1.427
1.413
1.422
1.417
1.413
1.417
1.442
1.476
1.496
1.54
1.598
1.637
1.647
1.642
1.647
1.652
1.637
1.618
1.637
1.652
1.657
1.662
1.676
1.701
1.696
1.672
1.672
1.681
1.686
1.681
1.681
1.691
1.706
1.686
1.681
1.691
1.696
1.686
1.681
1.691
1.706
1.686
1.662
1.672
1.686
1.691
1.681
1.691
1.716
1.72
1.706
1.716
1.735
1.735
1.725
1.72
1.73
1.725
1.686
1.676
1.691
1.701
1.696
1.691
1.706
1.725
1.72
1.716
1.735
1.75
1.745
1.735
1.73
1.74
1.735
1.72
1.725
1.745
1.745
1.74
1.73
1.74
1.755
1.74
1.74
1.76
1.769
1.769
1.774
1.794
1.813
1.804
1.784
1.789
1.799
1.794
1.779
1.774
1.789
1.794
1.784
1.799
1.823
1.833
1.828
1.823
1.843
1.848
1.813
1.799
1.804
1.813
1.804
1.799
1.808
1.828
1.818
1.799
1.804
1.808
1.794
1.769
1.755
1.75
1.735
1.706
1.711
1.725
1.73
1.72
1.711
1.72
1.72
1.696
1.681
1.691
1.686
1.667
1.647
1.642
1.652
1.642
1.632
1.642
1.657
1.657
1.662
1.667
1.681
1.676
1.647
1.637
1.642
1.632
1.618
1.608
1.623
1.637
1.618
1.613
1.632
1.637
1.637
1.628
1.632
1.647
1.642
1.632
1.642
1.662
1.662
1.647
1.647
1.657
1.647
1.628
1.628
1.642
1.637
1.623
1.613
1.623
1.637
1.618
1.608
1.618
1.628
1.623
1.613
1.623
1.642
1.632
1.613
1.628
1.652
1.657
1.652
1.652
1.667
1.657
1.623
1.613
1.623
1.623
1.618
1.623
1.647
1.672
1.667
1.667
1.686
1.691
1.676
1.657
1.652
1.657
1.642
1.623
1.637
1.657
1.657
1.652
1.652
1.662
1.662
1.637
1.642
1.662
1.657
1.647
1.642
1.662
1.681
1.657
1.652
1.672
1.686
1.681
1.676
1.686
1.696
1.676
1.657
1.657
1.662
1.652
1.632
1.628
1.632
1.628
1.608
1.613
1.632
1.642
1.642
1.647
1.662
1.676
1.657
1.647
1.662
1.672
1.662
1.647
1.652
1.662
1.647
1.632
1.647
1.667
1.667
1.657
1.657
1.676
1.681
1.667
1.667
1.686
1.686
1.672
1.662
1.662
1.667
1.647
1.642
1.667
1.686
1.691
1.696
1.706
1.73
1.72
1.701
1.701
1.706
1.701
1.691
1.691
1.711
1.711
1.691
1.686
1.696
1.701
1.691
1.681
1.691
1.706
1.691
1.676
1.686
1.686
1.667
1.647
1.642
1.652
1.642
1.628
1.637
1.657
1.657
1.652
1.647
1.657
1.652
1.628
1.628
1.642
1.642
1.637
1.632
1.647
1.652
1.628
1.618
1.632
1.637
1.632
1.628
1.632
1.652
1.642
1.618
1.623
1.642
1.642
1.637
1.642
1.657
1.662
1.637
1.637
1.657
1.662
1.652
1.647
1.667
1.691
1.701
1.716
1.769
1.813
1.843
1.857
1.891
1.931
1.931
1.906
1.887
1.857
1.794
1.716
1.642
1.588
1.535
1.476
1.447
1.442
1.432
1.427
1.422
1.442
1.461
1.452
1.457
1.496
1.535
1.559
1.574
1.603
1.637
1.642
1.632
1.642
1.662
1.657
1.647
1.647
1.667
1.672
1.652
1.652
1.672
1.681
1.672
1.676
1.701
1.716
1.696
1.686
1.701
1.716
1.711
1.696
1.691
1.696
1.681
1.657
1.662
1.686
1.686
1.686
1.691
1.706
1.716
1.696
1.696
1.706
1.711
1.696
1.681
1.691
1.701
1.686
1.676
1.691
1.706
1.706
1.701
1.706
1.73
1.73
1.716
1.73
1.75
1.74
1.72
1.711
1.716
1.716
1.691
1.686
1.706
1.716
1.716
1.716
1.73
1.75
1.745
1.745
1.764
1.774
1.764
1.755
1.76
1.774
1.764
1.735
1.74
1.75
1.75
1.75
1.76
1.789
1.804
1.794
1.799
1.818
1.823
1.818
1.813
1.818
1.823
1.799
1.779
1.794
1.808
1.804
1.789
1.789
1.804
1.799
1.784
1.789
1.804
1.799
1.794
1.784
1.794
1.789
1.76
1.75
1.76
1.755
1.745
1.73
1.74
1.745
1.716
1.681
1.676
1.681
1.676
1.672
1.681
1.696
1.686
1.672
1.686
1.701
1.691
1.672
1.662
1.676
1.681
1.657
1.652
1.667
1.667
1.652
1.637
1.642
1.652
1.637
1.628
1.647
1.667
1.662
1.652
1.652
1.662
1.647
1.623
1.623
1.642
1.637
1.623
1.623
1.647
1.662
1.647
1.652
1.676
1.681
1.667
1.647
1.647
1.647
1.628
1.608
1.623
1.637
1.632
1.628
1.637
1.662
1.662
1.642
1.647
1.662
1.662
1.652
1.652
1.662
1.667
1.647
1.642
1.662
1.672
1.657
1.647
1.652
1.662
1.642
1.632
1.647
1.662
1.667
1.662
1.667
1.686
1.672
1.647
1.652
1.667
1.662
1.652
1.642
1.657
1.662
1.642
1.637
1.657
1.667
1.662
1.657
1.662
1.681
1.667
1.652
1.657
1.662
1.647
1.647
1.662
1.686
1.686
1.662
1.667
1.686
1.681
1.667
1.657
1.662
1.662
1.637
1.642
1.662
1.672
1.667
1.657
1.662
1.672
1.657
1.647
1.662
1.681
1.676
1.667
1.667
1.676
1.667
1.637
1.637
1.647
1.647
1.642
1.647
1.667
1.676
1.657
1.657
1.667
1.667
1.652
1.642
1.642
1.652
1.642
1.637
1.657
1.676
1.672
1.657
1.657
1.672
1.667
1.647
1.657
1.676
1.681
1.681
1.676
1.686
1.691
1.672
1.667
1.681
1.696
1.696
1.691
1.706
1.725
1.711
1.701
1.716
1.735
1.735
1.73
1.73
1.75
1.745
1.725
1.725
1.735
1.72
1.701
1.696
1.716
1.725
1.706
1.706
1.72
1.716
1.701
1.691
1.691
1.696
1.672
1.652
1.662
1.672
1.667
1.647
1.647
1.652
1.642
1.618
1.623
1.642
1.647
1.642
1.642
1.657
1.667
1.642
1.637
1.657
1.667
1.662
1.657
1.662
1.672
1.652
1.637
1.647
1.657
1.657
1.652
1.657
1.676
1.672
1.657
1.667
1.681
1.681
1.676
1.672
1.681
1.686
1.667
1.667
1.691
1.716
1.725
1.745
1.789
1.848
1.887
1.916
1.965
1.994
1.989
1.96
1.926
1.882
1.799
1.691
1.613
1.564
1.52
1.471
1.447
1.447
1.452
1.432
1.432
1.457
1.471
1.476
1.481
1.505
1.544
1.559
1.574
1.608
1.642
1.657
1.662
1.667
1.691
1.696
1.676
1.681
1.701
1.706
1.706
1.706
1.72
1.725
1.696
1.676
1.686
1.686
1.676
1.667
1.676
1.701
1.701
1.696
1.72
1.75
1.75
1.735
1.725
1.73
1.716
1.691
1.686
1.701
1.701
1.701
1.701
1.725
1.74
1.725
1.725
1.745
1.75
1.735
1.72
1.725
1.735
1.72
1.701
1.716
1.73
1.735
1.735
1.74
1.764
1.769
1.745
1.745
1.755
1.75
1.735
1.725
1.74
1.75
1.735
1.73
1.75
1.769
1.769
1.764
1.769
1.784
1.774
1.76
1.774
1.799
1.799
1.789
1.789
1.804
1.808
1.794
1.808
1.838
1.838
1.828
1.823
1.833
1.843
1.818
1.804
1.813
1.818
1.818
1.813
1.823
1.843
1.838
1.818
1.823
1.843
1.828
1.813
1.804
1.813
1.804
1.779
1.779
1.794
1.794
1.779
1.764
1.769
1.774
1.745
1.73
1.74
1.745
1.73
1.72
1.725
1.74
1.725
1.701
1.706
1.72
1.706
1.691
1.691
1.706
1.701
1.667
1.662
1.676
1.672
1.657
1.642
1.657
1.667
1.657
1.652
1.672
1.681
1.676
1.667
1.672
1.681
1.667
1.647
1.652
1.662
1.657
1.647
1.652
1.672
1.676
1.662
1.662
1.681
1.686
1.672
1.662
1.667
1.667
1.647
1.642
1.657
1.667
1.662
1.652
1.652
1.662
1.652
1.632
1.647
1.667
1.672
1.667
1.667
1.681
1.676
1.647
1.647
1.667
1.676
1.676
1.672
1.681
1.696
1.676
1.662
1.667
1.672
1.667
1.657
1.657
1.667
1.657
1.637
1.647
1.662
1.657
1.647
1.652
1.672
1.681
1.657
1.657
1.676
1.676
1.667
1.662
1.672
1.681
1.662
1.657
1.667
1.676
1.672
1.662
1.667
1.686
1.676
1.662
1.676
1.696
1.691
1.681
1.676
1.686
1.681
1.652
1.652
1.676
1.686
1.681
1.681
1.691
1.701
1.676
1.667
1.676
1.686
1.681
1.681
1.696
1.711
1.696
1.672
1.676
1.686
1.681
1.672
1.672
1.691
1.696
1.681
1.691
1.711
1.716
1.711
1.706
1.716
1.725
1.711
1.706
1.725
1.735
1.73
1.716
1.72
1.73
1.72
1.696
1.706
1.72
1.72
1.711
1.711
1.72
1.73
1.711
1.711
1.72
1.716
1.696
1.676
1.676
1.686
1.662
1.642
1.647
1.652
1.647
1.642
1.652
1.676
1.676
1.667
1.676
1.686
1.681
1.667
1.662
1.672
1.667
1.642
1.642
1.657
1.662
1.652
1.637
1.647
1.657
1.637
1.628
1.647
1.662
1.662
1.667
1.676
1.696
1.686
1.662
1.657
1.667
1.662
1.652
1.652
1.672
1.691
1.681
1.706
1.75
1.779
1.799
1.818
1.852
1.891
1.896
1.896
1.911
1.916
1.887
1.838
1.779
1.725
1.652
1.569
1.53
1.505
1.471
1.442
1.432
1.447
1.461
1.452
1.471
1.505
1.525
1.525
1.535
1.559
1.593
1.593
1.598
1.632
1.662
1.676
1.681
1.691
1.716
1.711
1.681
1.681
1.686
1.681
1.672
1.667
1.686
1.696
1.681
1.686
1.711
1.72
1.716
1.706
1.716
1.725
1.706
1.686
1.696
1.706
1.706
1.706
1.711
1.73
1.725
1.706
1.711
1.725
1.72
1.706
1.696
1.711
1.716
1.701
1.706
1.735
1.745
1.745
1.745
1.755
1.764
1.75
1.73
1.735
1.74
1.73
1.711
1.706
1.72
1.716
1.706
1.72
1.75
1.76
1.76
1.76
1.774
1.779
1.76
1.75
1.764
1.769
1.764
1.764
1.779
1.794
1.779
1.764
1.779
1.794
1.794
1.794
1.799
1.818
1.818
1.804
1.823
1.848
1.848
1.843
1.843
1.862
1.862
1.838
1.828
1.843
1.843
1.838
1.833
1.838
1.848
1.828
1.808
1.813
1.823
1.808
1.799
1.804
1.823
1.823
1.808
1.818
1.823
1.804
1.774
1.745
1.74
1.73
1.701
1.691
1.711
1.711
1.696
1.686
1.701
1.711
1.686
1.662
1.667
1.672
1.667
1.662
1.667
1.686
1.676
1.657
1.657
1.676
1.676
1.667
1.652
1.662
1.662
1.637
1.632
1.647
1.652
1.637
1.628
1.637
1.652
1.642
1.632
1.652
1.672
1.672
1.667
1.672
1.681
1.672
1.637
1.632
1.642
1.647
1.637
1.642
1.657
1.667
1.647
1.652
1.667
1.676
1.667
1.647
1.647
1.657
1.637
1.628
1.647
1.662
1.652
1.642
1.647
1.667
1.667
1.647
1.647
1.667
1.672
1.662
1.652
1.667
1.672
1.652
1.652
1.672
1.681
1.676
1.672
1.681
1.686
1.667
1.647
1.657
1.672
1.662
1.652
1.657
1.681
1.686
1.672
1.681
1.701
1.696
1.686
1.676
1.681
1.686
1.662
1.657
1.676
1.686
1.676
1.672
1.686
1.706
1.701
1.686
1.686
1.691
1.681
1.672
1.672
1.691
1.686
1.662
1.672
1.691
1.701
1.696
1.691
1.701
1.711
1.691
1.681
1.701
1.711
1.706
1.701
1.711
1.725
1.706
1.686
1.691
1.706
1.706
1.701
1.701
1.716
1.711
1.691
1.696
1.711
1.711
1.696
1.686
1.696
1.701
1.681
1.672
1.681
1.681
1.672
1.657
1.662
1.672
1.657
1.642
1.657
1.676
1.667
1.657
1.657
1.672
1.672
1.652
1.652
1.667
1.662
1.647
1.632
1.647
1.657
1.642
1.637
1.657
1.667
1.662
1.652
1.657
1.662
1.637
1.623
1.642
1.662
1.662
1.657
1.662
1.681
1.681
1.662
1.662
1.681
1.686
1.686
1.696
1.725
1.76
1.764
1.789
1.838
1.882
1.901
1.916
1.926
1.926
1.887
1.828
1.784
1.735
1.672
1.608
1.559
1.53
1.496
1.452
1.437
1.442
1.442
1.432
1.437
1.461
1.5
1.51
1.535
1.574
1.608
1.618
1.623
1.637
1.652
1.642
1.628
1.647
1.667
1.672
1.672
1.676
1.696
1.701
1.681
1.681
1.696
1.696
1.686
1.676
1.686
1.696
1.681
1.676
1.696
1.706
1.711
1.701
1.711
1.72
1.711
1.686
1.691
1.701
1.701
1.691
1.696
1.716
1.711
1.691
1.696
1.711
1.716
1.706
1.706
1.725
1.745
1.73
1.725
1.74
1.745
1.73
1.716
1.711
1.72
1.711
1.701
1.716
1.74
1.735
1.725
1.72
1.73
1.735
1.72
1.73
1.76
1.769
1.764
1.764
1.774
1.774
1.75
1.735
1.75
1.76
1.764
1.769
1.784
1.804
1.794
1.774
1.779
1.794
1.794
1.784
1.789
1.808
1.813
1.794
1.799
1.818
1.823
1.813
1.808
1.828
1.848
1.843
1.838
1.848
1.852
1.838
1.818
1.813
1.813
1.789
1.764
1.774
1.794
1.794
1.779
1.769
1.769
1.76
1.72
1.701
1.701
1.701
1.696
1.701
1.72
1.73
1.706
1.686
1.691
1.691
1.672
1.652
1.642
1.652
1.642
1.623
1.637
1.662
1.667
1.652
1.637
1.637
1.628
1.603
1.598
1.613
1.608
1.603
1.613
1.642
1.667
1.652
1.642
1.652
1.657
1.642
1.628
1.632
1.647
1.637
1.613
1.613
1.628
1.623
1.613
1.613
1.628
1.637
1.623
1.632
1.652
1.657
1.647
1.637
1.642
1.647
1.623
1.613
1.632
1.647
1.642
1.632
1.637
1.652
1.642
1.618
1.632
1.652
1.652
1.637
1.637
1.652
1.657
1.632
1.632
1.642
1.647
1.637
1.628
1.637
1.652
1.637
1.628
1.647
1.662
1.652
1.647
1.657
1.667
1.657
1.637
1.642
1.667
1.662
1.652
1.657
1.681
1.696
1.681
1.676
1.686
1.681
1.667
1.652
1.652
1.652
1.628
1.618
1.632
1.652
1.652
1.652
1.657
1.672
1.662
1.637
1.642
1.657
1.652
1.647
1.652
1.667
1.672
1.652
1.647
1.662
1.662
1.652
1.642
1.652
1.667
1.652
1.647
1.667
1.681
1.676
1.667
1.667
1.681
1.676
1.657
1.662
1.676
1.676
1.667
1.662
1.672
1.676
1.662
1.667
1.691
1.701
1.701
1.696
1.706
1.72
1.696
1.681
1.691
1.701
1.691
1.686
1.691
1.706
1.696
1.676
1.686
1.706
1.701
1.681
1.672
1.672
1.667
1.632
1.623
1.637
1.647
1.642
1.642
1.657
1.667
1.647
1.628
1.628
1.628
1.618
1.613
1.628
1.657
1.662
1.647
1.657
1.662
1.642
1.618
1.608
1.608
1.608
1.584
1.593
1.623
1.642
1.652
1.657
1.676
1.686
1.667
1.657
1.667
1.681
1.672
1.662
1.662
1.672
1.662
1.642
1.657
1.686
1.711
1.73
1.76
1.808
1.843
1.852
1.882
1.921
1.945
1.94
1.921
1.901
1.867
1.794
1.706
1.637
1.574
1.505
1.452
1.427
1.432
1.437
1.432
1.452
1.481
1.491
1.496
1.5
1.525
1.544
1.54
1.559
1.598
1.628
1.632
1.637
1.657
1.676
1.662
1.652
1.672
1.691
1.686
1.676
1.681
1.696
1.691
1.672
1.681
1.691
1.691
1.676
1.667
1.681
1.686
1.667
1.667
1.691
1.706
1.706
1.701
1.706
1.711
1.691
1.672
1.686
1.701
1.701
1.701
1.711
1.73
1.72
1.696
1.701
1.711
1.711
1.701
1.696
1.716
1.725
1.706
1.701
1.711
1.716
1.711
1.706
1.72
1.735
1.72
1.706
1.72
1.73
1.716
1.701
1.706
1.716
1.716
1.706
1.72
1.745
1.745
1.74
1.74
1.755
1.769
1.755
1.755
1.779
1.789
1.784
1.774
1.779
1.789
1.774
1.76
1.774
1.784
1.784
1.779
1.789
1.808
1.813
1.799
1.804
1.818
1.818
1.813
1.813
1.828
1.833
1.808
1.804
1.818
1.823
1.813
1.799
1.799
1.804
1.779
1.764
1.779
1.789
1.779
1.769
1.76
1.76
1.735
1.701
1.696
1.711
1.706
1.696
1.691
1.706
1.706
1.681
1.681
1.686
1.676
1.657
1.652
1.662
1.681
1.667
1.652
1.667
1.681
1.676
1.662
1.652
1.662
1.657
1.637
1.642
1.667
1.672
1.662
1.657
1.667
1.672
1.647
1.642
1.652
1.657
1.652
1.642
1.652
1.667
1.652
1.637
1.642
1.652
1.642
1.632
1.632
1.647
1.642
1.628
1.632
1.647
1.652
1.647
1.647
1.662
1.662
1.637
1.628
1.642
1.652
1.642
1.632
1.637
1.652
1.642
1.632
1.647
1.662
1.657
1.647
1.652
1.667
1.667
1.642
1.642
1.657
1.657
1.647
1.642
1.657
1.667
1.642
1.637
1.652
1.662
1.662
1.657
1.667
1.691
1.686
1.672
1.676
1.681
1.667
1.647
1.642
1.652
1.642
1.628
1.642
1.676
1.686
1.686
1.676
1.686
1.686
1.652
1.637
1.652
1.652
1.647
1.642
1.657
1.681
1.672
1.657
1.667
1.681
1.676
1.672
1.672
1.681
1.676
1.652
1.647
1.662
1.662
1.652
1.652
1.672
1.691
1.686
1.691
1.716
1.725
1.711
1.691
1.691
1.701
1.681
1.667
1.676
1.696
1.691
1.686
1.691
1.706
1.706
1.681
1.681
1.696
1.701
1.696
1.691
1.706
1.711
1.686
1.676
1.686
1.686
1.667
1.647
1.652
1.662
1.647
1.628
1.637
1.647
1.642
1.632
1.637
1.657
1.657
1.637
1.642
1.657
1.652
1.637
1.632
1.642
1.652
1.637
1.637
1.657
1.667
1.662
1.652
1.652
1.667
1.652
1.632
1.637
1.652
1.652
1.642
1.632
1.637
1.628
1.608
1.613
1.637
1.652
1.652
1.662
1.691
1.711
1.706
1.72
1.764
1.804
1.828
1.848
1.882
1.916
1.921
1.901
1.901
1.877
1.818
1.745
1.681
1.632
1.574
1.5
1.461
1.452
1.437
1.432
1.427
1.452
1.476
1.466
1.476
1.505
1.54
1.559
1.569
1.593
1.623
1.618
1.608
1.628
1.647
1.652
1.652
1.662
1.681
1.681
1.662
1.667
1.686
1.696
1.686
1.676
1.691
1.701
1.686
1.676
1.691
1.696
1.686
1.672
1.681
1.701
1.696
1.676
1.696
1.711
1.711
1.706
1.706
1.716
1.716
1.686
1.686
1.701
1.701
1.696
1.691
1.706
1.72
1.706
1.701
1.716
1.72
1.716
1.706
1.711
1.725
1.711
1.696
1.711
1.725
1.72
1.716
1.716
1.73
1.735
1.716
1.72
1.735
1.735
1.73
1.725
1.74
1.755
1.745
1.74
1.76
1.774
1.774
1.769
1.779
1.789
1.774
1.76
1.774
1.799
1.799
1.789
1.789
1.808
1.818
1.799
1.804
1.823
1.823
1.818
1.818
1.833
1.843
1.813
1.804
1.813
1.818
1.813
1.799
1.799
1.808
1.799
1.784
1.794
1.804
1.799
1.779
1.774
1.784
1.784
1.75
1.74
1.74
1.735
1.72
1.706
1.716
1.716
1.691
1.672
1.681
1.691
1.681
1.667
1.667
1.681
1.667
1.647
1.657
1.662
1.647
1.628
1.623
1.637
1.647
1.628
1.637
1.657
1.672
1.667
1.662
1.667
1.672
1.642
1.623
1.628
1.637
1.628
1.623
1.628
1.647
1.642
1.628
1.642
1.657
1.657
1.647
1.637
1.642
1.632
1.613
1.623
1.642
1.642
1.637
1.628
1.632
1.637
1.618
1.598
1.608
1.618
1.618
1.613
1.623
1.647
1.642
1.628
1.632
1.642
1.637
1.628
1.623
1.632
1.632
1.608
1.608
1.623
1.628
1.623
1.618
1.637
1.662
1.657
1.652
1.667
1.681
1.672
1.657
1.652
1.657
1.642
1.613
1.623
1.642
1.652
1.652
1.667
1.691
1.696
1.672
1.662
1.667
1.657
1.642
1.632
1.647
1.662
1.647
1.637
1.647
1.657
1.647
1.637
1.642
1.652
1.642
1.628
1.642
1.667
1.676
1.676
1.667
1.672
1.667
1.637
1.637
1.657
1.662
1.652
1.642
1.652
1.667
1.647
1.632
1.647
1.657
1.652
1.647
1.657
1.681
1.681
1.667
1.676
1.696
1.686
1.672
1.662
1.676
1.681
1.672
1.676
1.701
1.706
1.701
1.696
1.706
1.72
1.706
1.686
1.696
1.701
1.701
1.696
1.701
1.72
1.706
1.681
1.681
1.701
1.701
1.696
1.691
1.696
1.696
1.672
1.667
1.681
1.686
1.672
1.652
1.652
1.652
1.632
1.618
1.632
1.642
1.637
1.632
1.637
1.657
1.652
1.637
1.652
1.672
1.672
1.657
1.647
1.657
1.657
1.632
1.628
1.647
1.662
1.667
1.672
1.686
1.696
1.667
1.642
1.642
1.647
1.637
1.628
1.632
1.657
1.657
1.642
1.647
1.667
1.667
1.662
1.672
1.706
1.735
1.755
1.794
1.852
1.896
1.916
1.926
1.935
1.935
1.896
1.843
1.799
1.745
1.672
1.593
1.544
1.515
1.476
1.442
1.442
1.461
1.461
1.461
1.471
1.496
1.51
1.5
1.51
1.549
1.579
1.598
1.613
1.637
1.662
1.662
1.662
1.686
1.701
1.691
1.681
1.676
1.686
1.672
1.652
1.657
1.676
1.686
1.681
1.681
1.701
1.711
1.686
1.672
1.681
1.686
1.681
1.672
1.686
1.701
1.691
1.686
1.701
1.711
1.706
1.691
1.691
1.706
1.701
1.672
1.676
1.696
1.701
1.696
1.696
1.716
1.725
1.706
1.711
1.725
1.73
1.725
1.72
1.73
1.745
1.73
1.716
1.725
1.735
1.725
1.711
1.716
1.735
1.74
1.725
1.735
1.755
1.755
1.74
1.73
1.74
1.74
1.72
1.716
1.74
1.755
1.76
1.764
1.784
1.799
1.784
1.764
1.774
1.794
1.799
1.799
1.804
1.818
1.818
1.799
1.799
1.813
1.813
1.799
1.789
1.799
1.813
1.799
1.804
1.823
1.828
1.823
1.813
1.818
1.833
1.813
1.799
1.799
1.799
1.789
1.774
1.769
1.779
1.769
1.745
1.75
1.764
1.76
1.74
1.72
1.72
1.716
1.686
1.676
1.691
1.701
1.701
1.691
1.696
1.701
1.672
1.647
1.652
1.657
1.652
1.652
1.662
1.681
1.676
1.657
1.652
1.662
1.647
1.628
1.628
1.647
1.662
1.647
1.642
1.657
1.662
1.657
1.657
1.667
1.681
1.667
1.652
1.662
1.676
1.667
1.652
1.647
1.657
1.652
1.628
1.637
1.662
1.667
1.667
1.657
1.667
1.672
1.652
1.642
1.662
1.672
1.667
1.652
1.657
1.667
1.652
1.637
1.647
1.667
1.667
1.662
1.667
1.676
1.667
1.642
1.642
1.657
1.657
1.642
1.642
1.662
1.681
1.672
1.662
1.667
1.667
1.647
1.632
1.637
1.652
1.642
1.628
1.642
1.662
1.662
1.652
1.652
1.672
1.676
1.657
1.667
1.686
1.691
1.681
1.672
1.676
1.672
1.642
1.632
1.647
1.657
1.657
1.662
1.676
1.691
1.672
1.657
1.662
1.676
1.667
1.657
1.652
1.657
1.652
1.632
1.637
1.662
1.672
1.662
1.662
1.676
1.691
1.681
1.681
1.696
1.701
1.676
1.662
1.662
1.681
1.672
1.657
1.667
1.686
1.686
1.681
1.686
1.701
1.696
1.672
1.672
1.686
1.681
1.667
1.667
1.681
1.701
1.686
1.681
1.706
1.72
1.716
1.706
1.716
1.725
1.711
1.691
1.701
1.72
1.72
1.711
1.701
1.711
1.701
1.676
1.672
1.691
1.696
1.686
1.681
1.691
1.691
1.662
1.642
1.642
1.647
1.637
1.628
1.637
1.657
1.652
1.642
1.657
1.667
1.662
1.647
1.642
1.647
1.642
1.623
1.632
1.652
1.662
1.657
1.652
1.667
1.676
1.652
1.632
1.642
1.647
1.642
1.637
1.647
1.667
1.652
1.637
1.647
1.662
1.667
1.657
1.662
1.681
1.691
1.691
1.716
1.76
1.794
1.818
1.848
1.896
1.935
1.935
1.926
1.931
1.911
1.862
1.794
1.725
1.672
1.598
1.525
1.491
1.471
1.442
1.427
1.427
1.442
1.452
1.442
1.457
1.491
1.52
1.54
1.564
1.603
1.637
1.642
1.647
1.676
1.691
1.681
1.667
1.667
1.676
1.667
1.647
1.657
1.681
1.691
1.691
1.691
1.706
1.706
1.686
1.686
1.706
1.706
1.696
1.686
1.696
1.706
1.686
1.681
1.711
1.73
1.725
1.716
1.72
1.73
1.716
1.686
1.686
1.701
1.701
1.696
1.701
1.72
1.73
1.711
1.706
1.716
1.706
1.691
1.691
1.706
1.716
1.701
1.696
1.711
1.725
1.72
1.716
1.72
1.745
1.745
1.735
1.745
1.764
1.764
1.75
1.74
1.75
1.75
1.73
1.73
1.75
1.764
1.76
1.76
1.774
1.789
1.774
1.769
1.784
1.799
1.804
1.804
1.813
1.828
1.823
1.799
1.804
1.808
1.799
1.789
1.784
1.804
1.813
1.799
1.799
1.823
1.833
1.828
1.818
1.828
1.838
1.818
1.804
1.818
1.828
1.813
1.804
1.799
1.804
1.789
1.769
1.774
1.779
1.764
1.745
1.735
1.74
1.74
1.711
1.706
1.72
1.72
1.706
1.686
1.691
1.696
1.672
1.652
1.662
1.672
1.667
1.657
1.667
1.681
1.667
1.647
1.647
1.657
1.657
1.642
1.642
1.652
1.657
1.637
1.642
1.667
1.681
1.672
1.657
1.662
1.667
1.642
1.628
1.642
1.652
1.647
1.647
1.652
1.672
1.667
1.642
1.642
1.652
1.652
1.642
1.637
1.652
1.662
1.647
1.642
1.657
1.662
1.657
1.647
1.652
1.657
1.628
1.613
1.628
1.642
1.642
1.642
1.657
1.681
1.681
1.662
1.667
1.676
1.667
1.647
1.637
1.647
1.662
1.642
1.652
1.676
1.691
1.686
1.681
1.686
1.696
1.672
1.657
1.676
1.691
1.686
1.667
1.662
1.672
1.662
1.637
1.637
1.652
1.647
1.642
1.642
1.657
1.662
1.637
1.637
1.652
1.667
1.667
1.662
1.676
1.691
1.676
1.662
1.672
1.676
1.667
1.657
1.662
1.676
1.672
1.652
1.657
1.676
1.676
1.667
1.662
1.676
1.676
1.647
1.642
1.657
1.662
1.652
1.647
1.662
1.676
1.672
1.672
1.696
1.711
1.706
1.696
1.696
1.711
1.701
1.672
1.672
1.676
1.676
1.676
1.686
1.711
1.73
1.72
1.72
1.735
1.735
1.716
1.706
1.711
1.716
1.696
1.681
1.696
1.716
1.72
1.716
1.716
1.73
1.72
1.696
1.701
1.711
1.706
1.681
1.662
1.667
1.672
1.652
1.652
1.662
1.667
1.652
1.642
1.642
1.652
1.632
1.618
1.628
1.647
1.652
1.652
1.662
1.681
1.672
1.647
1.642
1.657
1.652
1.647
1.642
1.657
1.667
1.652
1.652
1.672
1.681
1.681
1.672
1.676
1.676
1.647
1.632
1.637
1.647
1.642
1.637
1.647
1.667
1.676
1.672
1.696
1.735
1.764
1.789
1.823
1.882
1.926
1.935
1.945
1.965
1.955
1.921
1.862
1.804
1.745
1.662
1.584
1.544
1.515
1.471
1.432
1.417
1.422
1.422
1.408
1.427
1.466
1.486
1.5
1.52
1.564
1.603
1.608
1.623
1.657
1.676
1.681
1.676
1.681
1.686
1.662
1.647
1.662
1.676
1.676
1.672
1.686
1.711
1.711
1.686
1.686
1.696
1.701
1.691
1.691
1.701
1.711
1.686
1.681
1.701
1.711
1.711
1.706
1.716
1.735
1.725
1.711
1.72
1.73
1.72
1.706
1.701
1.711
1.711
1.686
1.691
1.711
1.716
1.711
1.716
1.735
1.745
1.73
1.72
1.73
1.735
1.73
1.73
1.735
1.75
1.73
1.716
1.725
1.74
1.74
1.725
1.725
1.735
1.73
1.72
1.73
1.76
1.764
1.755
1.75
1.769
1.779
1.764
1.755
1.769
1.774
1.774
1.779
1.794
1.818
1.813
1.804
1.818
1.838
1.838
1.828
1.828
1.848
1.843
1.823
1.823
1.838
1.833
1.813
1.799
1.799
1.804
1.779
1.774
1.799
1.813
1.808
1.804
1.813
1.833
1.818
1.794
1.794
1.799
1.779
1.76
1.75
1.755
1.75
1.72
1.716
1.73
1.725
1.701
1.681
1.686
1.691
1.667
1.662
1.676
1.686
1.681
1.672
1.676
1.681
1.657
1.632
1.642
1.657
1.657
1.652
1.662
1.681
1.681
1.657
1.652
1.662
1.657
1.642
1.642
1.662
1.676
1.662
1.652
1.672
1.681
1.676
1.662
1.657
1.667
1.652
1.637
1.652
1.672
1.676
1.672
1.672
1.686
1.686
1.657
1.652
1.667
1.657
1.642
1.632
1.647
1.652
1.637
1.632
1.652
1.662
1.657
1.652
1.657
1.672
1.667
1.647
1.657
1.672
1.672
1.672
1.676
1.701
1.696
1.672
1.667
1.676
1.672
1.652
1.632
1.632
1.642
1.632
1.637
1.657
1.676
1.676
1.676
1.691
1.716
1.706
1.686
1.696
1.706
1.696
1.676
1.667
1.672
1.667
1.642
1.647
1.672
1.681
1.681
1.681
1.691
1.701
1.676
1.662
1.672
1.676
1.667
1.657
1.662
1.681
1.676
1.662
1.672
1.681
1.672
1.657
1.657
1.672
1.676
1.657
1.672
1.701
1.711
1.706
1.696
1.701
1.711
1.691
1.686
1.696
1.701
1.691
1.686
1.686
1.701
1.686
1.662
1.667
1.681
1.681
1.672
1.676
1.696
1.696
1.681
1.691
1.72
1.73
1.73
1.73
1.735
1.74
1.72
1.706
1.711
1.716
1.711
1.706
1.711
1.72
1.701
1.672
1.676
1.686
1.681
1.676
1.686
1.711
1.716
1.696
1.691
1.696
1.686
1.667
1.652
1.652
1.662
1.647
1.642
1.662
1.676
1.676
1.672
1.676
1.696
1.686
1.662
1.667
1.676
1.667
1.647
1.632
1.637
1.632
1.613
1.623
1.647
1.662
1.662
1.657
1.667
1.676
1.652
1.637
1.647
1.657
1.652
1.652
1.662
1.681
1.676
1.657
1.667
1.696
1.711
1.72
1.745
1.794
1.833
1.848
1.877
1.921
1.935
1.931
1.911
1.896
1.862
1.784
1.706
1.657
1.608
1.549
1.5
1.471
1.461
1.442
1.417
1.422
1.442
1.452
1.457
1.476
1.515
1.544
1.544
1.569
1.613
1.632
1.642
1.652
1.676
1.696
1.691
1.686
1.706
1.716
1.706
1.691
1.686
1.696
1.681
1.657
1.657
1.667
1.657
1.647
1.652
1.681
1.701
1.696
1.706
1.73
1.745
1.74
1.73
1.73
1.725
1.701
1.681
1.696
1.706
1.696
1.686
1.691
1.706
1.701
1.691
1.711
1.745
1.755
1.75
1.755
1.764
1.764
1.735
1.72
1.725
1.725
1.716
1.706
1.72
1.725
1.701
1.686
1.711
1.73
1.735
1.74
1.764
1.789
1.789
1.774
1.774
1.784
1.774
1.76
1.75
1.764
1.769
1.76
1.769
1.794
1.804
1.799
1.794
1.799
1.808
1.794
1.784
1.799
1.813
1.808
1.804
1.808
1.833
1.828
1.813
1.823
1.838
1.833
1.818
1.808
1.828
1.833
1.813
1.813
1.828
1.833
1.828
1.818
1.818
1.828
1.808
1.794
1.799
1.808
1.794
1.774
1.764
1.769
1.755
1.725
1.725
1.73
1.725
1.711
1.706
1.711
1.711
1.681
1.672
1.691
1.701
1.686
1.676
1.681
1.686
1.662
1.642
1.647
1.657
1.652
1.642
1.652
1.667
1.662
1.642
1.647
1.657
1.652
1.647
1.647
1.662
1.667
1.647
1.642
1.662
1.667
1.662
1.652
1.657
1.662
1.642
1.623
1.628
1.642
1.637
1.628
1.623
1.637
1.632
1.613
1.623
1.637
1.637
1.623
1.618
1.632
1.647
1.632
1.632
1.657
1.672
1.667
1.662
1.662
1.672
1.652
1.628
1.632
1.642
1.637
1.632
1.632
1.647
1.642
1.623
1.632
1.652
1.657
1.647
1.647
1.667
1.686
1.672
1.667
1.681
1.681
1.667
1.647
1.652
1.672
1.652
1.637
1.652
1.662
1.662
1.652
1.652
1.667
1.662
1.642
1.657
1.686
1.691
1.681
1.672
1.676
1.676
1.647
1.632
1.642
1.647
1.642
1.637
1.647
1.662
1.657
1.652
1.667
1.686
1.686
1.676
1.676
1.696
1.691
1.667
1.672
1.686
1.691
1.686
1.686
1.706
1.716
1.701
1.706
1.725
1.735
1.725
1.711
1.711
1.716
1.696
1.672
1.676
1.686
1.691
1.696
1.706
1.73
1.725
1.696
1.686
1.691
1.676
1.657
1.642
1.642
1.647
1.628
1.623
1.642
1.652
1.647
1.637
1.647
1.662
1.647
1.637
1.647
1.662
1.652
1.642
1.642
1.662
1.662
1.642
1.637
1.652
1.652
1.642
1.637
1.647
1.657
1.642
1.642
1.667
1.676
1.672
1.662
1.662
1.676
1.652
1.628
1.632
1.647
1.647
1.642
1.652
1.676
1.681
1.676
1.696
1.735
1.76
1.779
1.804
1.852
1.882
1.882
1.882
1.901
1.891
1.852
1.799
1.745
1.696
1.628
1.554
1.515
1.491
1.457
1.427
1.417
1.432
1.437
1.427
1.447
1.491
1.515
1.52
1.535
1.569
1.603
1.598
1.603
1.623
1.632
1.632
1.637
1.657
1.686
1.686
1.672
1.686
1.701
1.701
1.696
1.691
1.701
1.696
1.667
1.667
1.686
1.696
1.696
1.691
1.706
1.711
1.686
1.676
1.686
1.696
1.681
1.672
1.676
1.696
1.696
1.691
1.716
1.735
1.735
1.725
1.72
1.725
1.716
1.681
1.676
1.691
1.696
1.691
1.696
1.72
1.735
1.716
1.706
1.716
1.72
1.706
1.696
1.696
1.716
1.716
1.706
1.725
1.745
1.745
1.735
1.73
1.74
1.745
1.73
1.75
1.774
1.784
1.779
1.774
1.784
1.789
1.764
1.75
1.76
1.774
1.779
1.784
1.799
1.823
1.813
1.799
1.808
1.818
1.818
1.808
1.808
1.828
1.833
1.808
1.808
1.823
1.828
1.818
1.813
1.833
1.843
1.823
1.808
1.818
1.813
1.794
1.774
1.774
1.784
1.769
1.745
1.75
1.76
1.75
1.73
1.716
1.72
1.716
1.686
1.681
1.701
1.706
1.691
1.681
1.681
1.676
1.652
1.637
1.647
1.657
1.657
1.647
1.652
1.667
1.652
1.637
1.642
1.647
1.642
1.623
1.618
1.632
1.637
1.618
1.618
1.632
1.637
1.632
1.623
1.632
1.647
1.628
1.613
1.623
1.632
1.632
1.628
1.632
1.647
1.632
1.618
1.628
1.642
1.642
1.632
1.632
1.647
1.652
1.628
1.628
1.642
1.647
1.637
1.623
1.628
1.632
1.608
1.598
1.613
1.623
1.613
1.608
1.618
1.642
1.642
1.623
1.632
1.652
1.652
1.642
1.642
1.657
1.657
1.637
1.632
1.652
1.652
1.642
1.632
1.637
1.647
1.628
1.618
1.632
1.647
1.652
1.647
1.652
1.672
1.667
1.652
1.662
1.676
1.672
1.657
1.652
1.662
1.667
1.642
1.647
1.672
1.676
1.667
1.657
1.667
1.681
1.662
1.642
1.652
1.657
1.647
1.637
1.642
1.652
1.642
1.628
1.642
1.667
1.667
1.657
1.657
1.676
1.681
1.662
1.657
1.676
1.681
1.676
1.667
1.676
1.686
1.657
1.632
1.632
1.642
1.652
1.662
1.691
1.725
1.73
1.716
1.725
1.74
1.725
1.701
1.681
1.681
1.681
1.657
1.662
1.691
1.701
1.691
1.681
1.691
1.701
1.686
1.667
1.681
1.691
1.686
1.672
1.667
1.672
1.657
1.628
1.632
1.642
1.642
1.632
1.632
1.647
1.657
1.642
1.647
1.672
1.681
1.667
1.657
1.662
1.672
1.647
1.623
1.628
1.632
1.628
1.618
1.623
1.647
1.652
1.637
1.647
1.662
1.662
1.652
1.652
1.662
1.662
1.637
1.628
1.642
1.652
1.647
1.642
1.657
1.676
1.667
1.672
1.706
1.75
1.779
1.808
1.843
1.891
1.911
1.906
1.916
1.921
1.887
1.828
1.76
1.711
1.647
1.569
1.52
1.505
1.491
1.471
1.461
1.461
1.466
1.452
1.442
1.457
1.476
1.481
1.491
1.53
1.579
1.613
1.623
1.647
1.667
1.672
1.662
1.657
1.672
1.672
1.647
1.642
1.662
1.676
1.672
1.667
1.681
1.691
1.676
1.662
1.676
1.691
1.686
1.681
1.686
1.701
1.696
1.676
1.686
1.706
1.701
1.686
1.676
1.686
1.691
1.672
1.672
1.691
1.701
1.696
1.691
1.701
1.716
1.696
1.681
1.696
1.711
1.706
1.701
1.706
1.725
1.725
1.701
1.701
1.716
1.716
1.706
1.706
1.725
1.735
1.72
1.72
1.745
1.755
1.745
1.74
1.745
1.75
1.73
1.711
1.725
1.74
1.735
1.735
1.745
1.769
1.774
1.755
1.76
1.774
1.774
1.769
1.764
1.779
1.794
1.774
1.779
1.804
1.813
1.808
1.799
1.804
1.813
1.789
1.764
1.774
1.789
1.789
1.784
1.789
1.808
1.818
1.799
1.804
1.808
1.804
1.789
1.774
1.779
1.784
1.76
1.745
1.755
1.76
1.75
1.735
1.73
1.735
1.711
1.686
1.686
1.696
1.681
1.672
1.667
1.681
1.676
1.647
1.652
1.672
1.672
1.657
1.647
1.657
1.662
1.637
1.628
1.637
1.637
1.618
1.608
1.618
1.642
1.632
1.618
1.632
1.647
1.647
1.647
1.652
1.667
1.657
1.628
1.632
1.647
1.647
1.637
1.632
1.642
1.652
1.628
1.618
1.637
1.642
1.637
1.628
1.628
1.637
1.628
1.618
1.632
1.652
1.647
1.637
1.637
1.652
1.647
1.628
1.628
1.647
1.642
1.632
1.623
1.632
1.642
1.618
1.613
1.632
1.642
1.642
1.637
1.647
1.667
1.652
1.632
1.637
1.647
1.642
1.632
1.637
1.657
1.652
1.632
1.632
1.652
1.652
1.642
1.642
1.657
1.667
1.652
1.652
1.676
1.686
1.676
1.667
1.667
1.676
1.662
1.647
1.667
1.681
1.681
1.676
1.672
1.681
1.672
1.637
1.628
1.642
1.647
1.642
1.647
1.662
1.676
1.662
1.652
1.657
1.662
1.652
1.637
1.642
1.662
1.657
1.647
1.657
1.672
1.667
1.657
1.657
1.672
1.667
1.642
1.642
1.657
1.662
1.652
1.642
1.657
1.676
1.662
1.652
1.672
1.681
1.672
1.657
1.662
1.672
1.667
1.652
1.667
1.686
1.691
1.681
1.681
1.696
1.691
1.672
1.676
1.701
1.711
1.711
1.716
1.725
1.725
1.706
1.691
1.701
1.701
1.691
1.676
1.681
1.706
1.701
1.686
1.696
1.711
1.706
1.701
1.696
1.706
1.696
1.672
1.667
1.681
1.681
1.667
1.657
1.662
1.667
1.637
1.618
1.628
1.637
1.632
1.632
1.642
1.662
1.652
1.632
1.642
1.652
1.652
1.637
1.628
1.637
1.642
1.632
1.637
1.657
1.662
1.652
1.642
1.652
1.662
1.637
1.623
1.637
1.647
1.642
1.637
1.642
1.662
1.657
1.647
1.662
1.681
1.691
1.696
1.711
1.75
1.774
1.784
1.818
1.867
1.901
1.921
1.926
1.935
1.926
1.872
1.808
1.755
1.696
1.618
1.549
1.505
1.486
1.452
1.417
1.422
1.447
1.461
1.466
1.476
1.5
1.515
1.515
1.535
1.574
1.603
1.618
1.628
1.652
1.672
1.657
1.642
1.652
1.652
1.637
1.623
1.632
1.647
1.642
1.632
1.652
1.681
1.686
1.686
1.691
1.711
1.716
1.691
1.686
1.696
1.701
1.696
1.691
1.701
1.716
1.696
1.686
1.706
1.72
1.716
1.701
1.706
1.725
1.716
1.701
1.711
1.72
1.72
1.716
1.711
1.72
1.716
1.686
1.681
1.696
1.706
1.701
1.701
1.711
1.725
1.711
1.701
1.711
1.72
1.716
1.706
1.716
1.735
1.735
1.72
1.73
1.75
1.755
1.745
1.745
1.76
1.76
1.735
1.74
1.764
1.779
