Num1
1.794
1.789
1.804
1.804
1.784
1.769
1.769
1.774
1.755
1.745
1.755
1.769
1.769
1.769
1.769
1.784
1.779
1.764
1.764
1.769
1.764
1.75
1.745
1.75
1.745
1.711
1.701
1.711
1.711
1.701
1.686
1.691
1.696
1.676
1.662
1.672
1.681
1.672
1.657
1.652
1.662
1.652
1.632
1.632
1.647
1.642
1.637
1.632
1.652
1.662
1.642
1.637
1.662
1.667
1.662
1.652
1.652
1.657
1.637
1.623
1.637
1.652
1.647
1.642
1.647
1.667
1.667
1.647
1.657
1.672
1.672
1.657
1.652
1.667
1.672
1.647
1.642
1.652
1.657
1.647
1.637
1.642
1.652
1.637
1.632
1.652
1.667
1.667
1.662
1.672
1.686
1.676
1.657
1.657
1.672
1.667
1.657
1.657
1.667
1.672
1.647
1.637
1.657
1.662
1.652
1.642
1.657
1.672
1.657
1.642
1.652
1.667
1.662
1.657
1.662
1.681
1.672
1.647
1.647
1.662
1.662
1.657
1.657
1.676
1.691
1.676
1.676
1.691
1.686
1.672
1.657
1.667
1.672
1.652
1.637
1.647
1.657
1.657
1.647
1.652
1.672
1.672
1.652
1.662
1.676
1.672
1.657
1.657
1.667
1.672
1.657
1.657
1.672
1.676
1.667
1.657
1.657
1.662
1.642
1.632
1.652
1.667
1.667
1.657
1.662
1.672
1.662
1.642
1.642
1.667
1.667
1.667
1.667
1.681
1.681
1.657
1.642
1.652
1.652
1.647
1.652
1.667
1.691
1.691
1.691
1.711
1.725
1.716
1.706
1.701
1.711
1.701
1.676
1.676
1.681
1.672
1.657
1.642
1.647
1.647
1.623
1.618
1.642
1.657
1.657
1.657
1.667
1.681
1.667
1.652
1.662
1.672
1.667
1.652
1.647
1.657
1.647
1.623
1.628
1.647
1.652
1.647
1.652
1.672
1.681
1.662
1.657
1.662
1.662
1.642
1.623
1.628
1.642
1.637
1.628
1.642
1.657
1.662
1.662
1.676
1.696
1.696
1.681
1.686
1.706
1.706
1.696
1.696
1.711
1.73
1.716
1.73
1.769
1.794
1.799
1.794
1.794
1.789
1.745
1.696
1.672
1.647
1.608
1.569
1.554
1.559
1.559
1.544
1.564
1.598
1.623
1.632
1.652
1.681
1.696
1.681
1.676
1.691
1.691
1.686
1.676
1.686
1.696
1.681
1.672
1.686
1.691
1.686
1.681
1.686
1.701
1.696
1.667
1.672
1.686
1.686
1.681
1.686
1.706
1.716
1.701
1.696
1.711
1.711
1.706
1.691
1.696
1.706
1.686
1.672
1.686
1.706
1.701
1.696
1.691
1.706
1.701
1.686
1.701
1.72
1.72
1.716
1.711
1.72
1.725
1.711
1.706
1.725
1.735
1.74
1.74
1.755
1.769
1.755
1.735
1.745
1.755
1.75
1.745
1.745
1.76
1.76
1.745
1.75
1.769
1.764
1.76
1.755
1.769
1.779
1.76
1.755
1.774
1.784
1.774
1.769
1.779
1.794
1.779
1.769
1.779
1.794
1.789
1.779
1.779
1.794
1.789
1.769
1.774
1.784
1.784
1.774
1.769
1.784
1.784
1.76
1.75
1.764
1.764
1.75
1.74
1.745
1.755
1.74
1.725
1.74
1.755
1.745
1.73
1.725
1.725
1.706
1.672
1.667
1.681
1.676
1.667
1.662
1.672
1.676
1.657
1.647
1.657
1.657
1.642
1.628
1.637
1.652
1.642
1.637
1.657
1.672
1.667
1.657
1.662
1.672
1.662
1.632
1.632
1.647
1.647
1.642
1.642
1.657
1.662
1.637
1.632
1.647
1.652
1.647
1.642
1.652
1.667
1.652
1.637
1.652
1.667
1.662
1.657
1.662
1.681
1.681
1.662
1.672
1.686
1.686
1.676
1.667
1.681
1.681
1.657
1.647
1.662
1.662
1.652
1.642
1.652
1.667
1.652
1.642
1.657
1.667
1.667
1.657
1.657
1.672
1.667
1.647
1.652
1.667
1.667
1.652
1.642
1.652
1.657
1.637
1.637
1.652
1.662
1.657
1.652
1.667
1.686
1.672
1.662
1.672
1.681
1.676
1.667
1.667
1.676
1.676
1.657
1.662
1.676
1.681
1.672
1.662
1.672
1.676
1.652
1.642
1.662
1.667
1.657
1.652
1.662
1.676
1.662
1.642
1.652
1.662
1.657
1.647
1.647
1.662
1.652
1.637
1.642
1.667
1.672
1.672
1.672
1.681
1.686
1.657
1.647
1.657
1.657
1.647
1.642
1.657
1.681
1.676
1.667
1.681
1.696
1.686
1.672
1.662
1.676
1.672
1.652
1.657
1.681
1.691
1.691
1.691
1.706
1.711
1.691
1.676
1.691
1.701
1.691
1.691
1.701
1.72
1.706
1.691
1.691
1.696
1.672
1.652
1.647
1.652
1.647
1.632
1.642
1.667
1.676
1.672
1.672
1.681
1.686
1.657
1.647
1.657
1.662
1.647
1.642
1.652
1.667
1.657
1.647
1.662
1.672
1.662
1.652
1.652
1.667
1.662
1.642
1.652
1.676
1.681
1.672
1.662
1.672
1.672
1.647
1.642
1.662
1.672
1.672
1.672
1.686
1.701
1.691
1.686
1.711
1.735
1.745
1.755
1.769
1.794
1.799
1.784
1.779
1.784
1.769
1.735
1.706
1.681
1.652
1.588
1.549
1.549
1.549
1.549
1.559
1.593
1.637
1.657
1.667
1.696
1.716
1.716
1.701
1.696
1.701
1.696
1.676
1.681
1.696
1.701
1.691
1.691
1.706
1.711
1.686
1.681
1.696
1.706
1.701
1.696
1.701
1.711
1.696
1.681
1.696
1.706
1.701
1.696
1.701
1.716
1.716
1.701
1.711
1.73
1.725
1.716
1.706
1.711
1.716
1.691
1.686
1.701
1.711
1.706
1.706
1.716
1.73
1.72
1.711
1.725
1.74
1.74
1.73
1.735
1.75
1.745
1.725
1.735
1.755
1.76
1.76
1.76
1.774
1.779
1.755
1.745
1.76
1.764
1.76
1.75
1.76
1.779
1.769
1.764
1.779
1.794
1.794
1.779
1.784
1.799
1.794
1.774
1.774
1.789
1.794
1.789
1.784
1.794
1.804
1.789
1.784
1.799
1.808
1.799
1.789
1.794
1.804
1.784
1.764
1.774
1.789
1.784
1.774
1.779
1.794
1.789
1.764
1.76
1.769
1.76
1.74
1.73
1.735
1.735
1.716
1.706
1.72
1.72
1.711
1.696
1.691
1.701
1.681
1.662
1.672
1.686
1.686
1.676
1.676
1.691
1.686
1.662
1.657
1.672
1.667
1.657
1.647
1.662
1.667
1.642
1.632
1.642
1.647
1.642
1.637
1.642
1.652
1.642
1.632
1.647
1.667
1.667
1.662
1.662
1.676
1.672
1.647
1.652
1.672
1.672
1.662
1.652
1.667
1.676
1.662
1.652
1.672
1.676
1.672
1.667
1.676
1.691
1.681
1.662
1.672
1.676
1.672
1.657
1.652
1.662
1.652
1.637
1.647
1.672
1.676
1.672
1.667
1.676
1.686
1.662
1.652
1.667
1.676
1.672
1.667
1.676
1.691
1.676
1.652
1.657
1.667
1.662
1.652
1.652
1.667
1.667
1.647
1.652
1.672
1.667
1.662
1.657
1.672
1.676
1.657
1.652
1.672
1.681
1.676
1.667
1.672
1.676
1.657
1.637
1.652
1.672
1.672
1.667
1.667
1.686
1.686
1.667
1.662
1.667
1.657
1.642
1.642
1.652
1.667
1.652
1.652
1.672
1.676
1.672
1.657
1.662
1.672
1.652
1.637
1.642
1.652
1.647
1.642
1.647
1.662
1.662
1.652
1.662
1.676
1.676
1.672
1.672
1.681
1.686
1.662
1.652
1.672
1.686
1.676
1.667
1.667
1.681
1.672
1.657
1.667
1.672
1.667
1.662
1.662
1.681
1.676
1.657
1.662
1.681
1.681
1.672
1.667
1.686
1.696
1.681
1.676
1.696
1.706
1.706
1.701
1.706
1.716
1.701
1.681
1.686
1.691
1.681
1.672
1.667
1.676
1.667
1.642
1.642
1.652
1.652
1.647
1.647
1.662
1.672
1.652
1.652
1.672
1.681
1.672
1.662
1.667
1.676
1.662
1.642
1.647
1.662
1.652
1.642
1.647
1.667
1.667
1.652
1.657
1.676
1.676
1.667
1.657
1.662
1.667
1.642
1.632
1.647
1.657
1.652
1.642
1.652
1.672
1.667
1.662
1.681
1.706
1.711
1.711
1.716
1.735
1.74
1.735
1.745
1.769
1.779
1.774
1.769
1.774
1.769
1.72
1.686
1.662
1.637
1.598
1.564
1.559
1.564
1.549
1.544
1.574
1.613
1.637
1.657
1.676
1.701
1.711
1.686
1.686
1.701
1.696
1.686
1.676
1.691
1.701
1.686
1.676
1.691
1.696
1.686
1.676
1.681
1.696
1.681
1.672
1.691
1.711
1.711
1.706
1.711
1.725
1.716
1.691
1.686
1.701
1.701
1.696
1.696
1.711
1.72
1.701
1.701
1.72
1.725
1.716
1.706
1.711
1.725
1.711
1.696
1.706
1.72
1.72
1.716
1.716
1.73
1.735
1.716
1.725
1.745
1.75
1.745
1.74
1.745
1.75
1.72
1.716
1.73
1.745
1.745
1.75
1.769
1.794
1.789
1.779
1.789
1.794
1.784
1.769
1.764
1.774
1.769
1.745
1.75
1.769
1.774
1.774
1.774
1.794
1.804
1.789
1.784
1.804
1.808
1.804
1.789
1.789
1.799
1.784
1.769
1.774
1.789
1.784
1.774
1.774
1.789
1.789
1.764
1.76
1.769
1.769
1.76
1.755
1.755
1.755
1.725
1.711
1.72
1.73
1.725
1.72
1.725
1.735
1.716
1.691
1.691
1.691
1.681
1.667
1.662
1.676
1.681
1.667
1.676
1.691
1.681
1.667
1.647
1.652
1.657
1.637
1.628
1.642
1.652
1.647
1.642
1.652
1.667
1.652
1.637
1.642
1.657
1.647
1.637
1.637
1.647
1.647
1.628
1.632
1.657
1.662
1.662
1.667
1.681
1.686
1.662
1.642
1.652
1.657
1.652
1.647
1.652
1.667
1.657
1.647
1.657
1.676
1.672
1.657
1.657
1.667
1.657
1.637
1.642
1.662
1.672
1.667
1.662
1.672
1.681
1.657
1.652
1.667
1.667
1.652
1.642
1.652
1.672
1.662
1.652
1.662
1.676
1.672
1.657
1.657
1.667
1.667
1.642
1.642
1.662
1.667
1.662
1.652
1.667
1.676
1.652
1.647
1.662
1.672
1.657
1.647
1.652
1.667
1.652
1.632
1.647
1.667
1.667
1.662
1.657
1.672
1.667
1.642
1.642
1.652
1.657
1.652
1.652
1.667
1.676
1.652
1.642
1.657
1.662
1.657
1.647
1.657
1.667
1.657
1.642
1.662
1.676
1.667
1.652
1.647
1.662
1.667
1.647
1.652
1.672
1.681
1.676
1.676
1.681
1.691
1.667
1.657
1.667
1.676
1.672
1.672
1.686
1.701
1.686
1.672
1.681
1.696
1.691
1.681
1.676
1.686
1.681
1.652
1.647
1.662
1.662
1.657
1.652
1.667
1.676
1.657
1.647
1.657
1.662
1.647
1.637
1.642
1.662
1.652
1.637
1.652
1.672
1.662
1.647
1.637
1.647
1.652
1.632
1.637
1.662
1.672
1.667
1.667
1.681
1.686
1.662
1.647
1.652
1.657
1.642
1.637
1.642
1.657
1.647
1.632
1.652
1.676
1.691
1.696
1.701
1.72
1.72
1.701
1.706
1.725
1.735
1.735
1.735
1.755
1.76
1.73
1.706
1.701
1.681
1.642
1.603
1.579
1.569
1.54
1.515
1.53
1.549
1.559
1.574
1.598
1.637
1.662
1.662
1.676
1.701
1.701
1.691
1.686
1.696
1.706
1.681
1.672
1.691
1.696
1.691
1.681
1.686
1.701
1.686
1.672
1.681
1.701
1.701
1.696
1.696
1.711
1.711
1.686
1.686
1.701
1.701
1.696
1.691
1.706
1.716
1.696
1.686
1.711
1.72
1.716
1.711
1.72
1.73
1.72
1.706
1.716
1.72
1.716
1.701
1.701
1.716
1.72
1.701
1.711
1.735
1.74
1.735
1.73
1.745
1.755
1.735
1.725
1.74
1.75
1.75
1.745
1.75
1.769
1.755
1.735
1.75
1.764
1.764
1.755
1.755
1.769
1.769
1.745
1.75
1.769
1.779
1.774
1.769
1.779
1.794
1.774
1.769
1.784
1.794
1.784
1.774
1.779
1.789
1.779
1.764
1.774
1.789
1.784
1.774
1.769
1.779
1.769
1.74
1.74
1.755
1.755
1.74
1.74
1.76
1.769
1.75
1.735
1.75
1.75
1.735
1.72
1.716
1.72
1.706
1.681
1.691
1.696
1.686
1.672
1.667
1.681
1.676
1.657
1.657
1.672
1.672
1.662
1.657
1.662
1.667
1.642
1.632
1.642
1.647
1.642
1.632
1.632
1.647
1.632
1.618
1.632
1.652
1.652
1.647
1.652
1.672
1.672
1.647
1.647
1.657
1.652
1.632
1.623
1.632
1.642
1.628
1.623
1.642
1.662
1.662
1.657
1.667
1.681
1.667
1.642
1.647
1.652
1.642
1.632
1.637
1.652
1.652
1.632
1.632
1.652
1.657
1.652
1.647
1.667
1.676
1.662
1.652
1.672
1.676
1.662
1.647
1.652
1.667
1.652
1.632
1.642
1.662
1.657
1.657
1.657
1.672
1.667
1.642
1.642
1.662
1.667
1.657
1.652
1.662
1.672
1.652
1.642
1.652
1.657
1.647
1.637
1.642
1.657
1.647
1.637
1.647
1.662
1.657
1.647
1.652
1.662
1.652
1.623
1.623
1.642
1.647
1.642
1.637
1.652
1.672
1.657
1.652
1.662
1.667
1.657
1.642
1.647
1.657
1.647
1.637
1.652
1.667
1.667
1.662
1.662
1.676
1.676
1.652
1.647
1.657
1.662
1.657
1.657
1.667
1.676
1.657
1.647
1.667
1.672
1.662
1.652
1.662
1.681
1.672
1.657
1.672
1.686
1.691
1.681
1.681
1.696
1.696
1.676
1.681
1.696
1.701
1.686
1.676
1.681
1.686
1.662
1.647
1.662
1.667
1.657
1.647
1.652
1.667
1.652
1.632
1.647
1.662
1.662
1.652
1.647
1.662
1.662
1.642
1.642
1.662
1.657
1.647
1.642
1.652
1.662
1.647
1.632
1.647
1.657
1.647
1.647
1.652
1.672
1.657
1.637
1.647
1.667
1.662
1.657
1.657
1.667
1.667
1.642
1.647
1.667
1.672
1.672
1.672
1.686
1.706
1.696
1.701
1.73
1.75
1.75
1.75
1.76
1.779
1.76
1.735
1.73
1.725
1.701
1.657
1.623
1.598
1.569
1.525
1.52
1.54
1.559
1.574
1.598
1.642
1.676
1.681
1.681
1.701
1.706
1.691
1.681
1.686
1.696
1.681
1.662
1.672
1.686
1.681
1.667
1.667
1.686
1.686
1.667
1.672
1.691
1.701
1.696
1.691
1.706
1.711
1.686
1.676
1.686
1.696
1.691
1.686
1.696
1.711
1.701
1.686
1.701
1.716
1.716
1.706
1.711
1.725
1.725
1.706
1.706
1.716
1.716
1.701
1.696
1.711
1.73
1.716
1.711
1.725
1.735
1.725
1.716
1.725
1.74
1.725
1.711
1.72
1.74
1.745
1.74
1.74
1.755
1.755
1.74
1.745
1.769
1.779
1.769
1.764
1.774
1.784
1.764
1.755
1.769
1.784
1.779
1.774
1.779
1.799
1.789
1.769
1.774
1.789
1.784
1.769
1.769
1.779
1.784
1.764
1.769
1.789
1.794
1.784
1.784
1.794
1.799
1.779
1.764
1.779
1.784
1.779
1.764
1.76
1.769
1.75
1.725
1.73
1.74
1.73
1.72
1.72
1.73
1.725
1.696
1.691
1.701
1.696
1.681
1.672
1.681
1.686
1.662
1.652
1.662
1.667
1.652
1.642
1.647
1.662
1.652
1.637
1.652
1.672
1.667
1.657
1.652
1.662
1.652
1.628
1.623
1.642
1.647
1.642
1.642
1.657
1.662
1.642
1.632
1.647
1.657
1.652
1.647
1.657
1.672
1.662
1.642
1.652
1.667
1.662
1.647
1.647
1.662
1.662
1.647
1.652
1.672
1.676
1.667
1.657
1.667
1.676
1.652
1.642
1.657
1.662
1.657
1.647
1.657
1.672
1.667
1.652
1.662
1.672
1.662
1.647
1.647
1.662
1.662
1.642
1.647
1.667
1.676
1.672
1.667
1.676
1.681
1.657
1.647
1.657
1.667
1.662
1.662
1.672
1.686
1.672
1.652
1.662
1.676
1.672
1.657
1.652
1.662
1.662
1.642
1.647
1.667
1.667
1.657
1.652
1.662
1.672
1.652
1.642
1.657
1.667
1.667
1.657
1.667
1.676
1.667
1.647
1.662
1.672
1.667
1.652
1.647
1.662
1.657
1.632
1.632
1.652
1.657
1.652
1.652
1.667
1.681
1.662
1.652
1.667
1.672
1.662
1.647
1.652
1.667
1.657
1.637
1.647
1.662
1.652
1.642
1.647
1.667
1.672
1.657
1.662
1.681
1.686
1.676
1.667
1.676
1.681
1.652
1.637
1.652
1.662
1.662
1.657
1.662
1.676
1.662
1.647
1.657
1.672
1.672
1.667
1.667
1.681
1.686
1.667
1.672
1.696
1.701
1.691
1.686
1.701
1.706
1.681
1.667
1.681
1.691
1.686
1.676
1.681
1.691
1.676
1.652
1.662
1.672
1.667
1.657
1.662
1.681
1.691
1.667
1.667
1.681
1.681
1.667
1.657
1.662
1.672
1.652
1.642
1.662
1.672
1.667
1.662
1.667
1.681
1.672
1.647
1.657
1.667
1.662
1.647
1.647
1.662
1.672
1.652
1.657
1.672
1.672
1.657
1.647
1.657
1.662
1.647
1.642
1.667
1.681
1.686
1.686
1.696
1.711
1.706
1.696
1.72
1.755
1.774
1.784
1.799
1.818
1.813
1.774
1.75
1.735
1.706
1.667
1.628
1.608
1.593
1.564
1.549
1.564
1.579
1.588
1.598
1.628
1.667
1.672
1.667
1.681
1.701
1.696
1.686
1.681
1.696
1.696
1.676
1.676
1.696
1.696
1.691
1.681
1.696
1.706
1.681
1.672
1.681
1.691
1.691
1.691
1.706
1.725
1.72
1.706
1.716
1.725
1.716
1.701
1.696
1.706
1.706
1.686
1.691
1.716
1.725
1.72
1.711
1.72
1.725
1.706
1.696
1.716
1.725
1.72
1.716
1.725
1.74
1.73
1.711
1.725
1.74
1.745
1.74
1.74
1.76
1.76
1.74
1.74
1.755
1.76
1.755
1.745
1.755
1.769
1.75
1.745
1.769
1.784
1.784
1.774
1.784
1.799
1.784
1.764
1.769
1.784
1.779
1.774
1.774
1.789
1.794
1.774
1.779
1.794
1.794
1.784
1.779
1.789
1.799
1.774
1.764
1.779
1.789
1.779
1.769
1.774
1.789
1.779
1.76
1.764
1.774
1.774
1.764
1.764
1.774
1.769
1.745
1.74
1.75
1.74
1.725
1.711
1.716
1.725
1.706
1.696
1.706
1.711
1.696
1.686
1.686
1.696
1.681
1.657
1.662
1.672
1.662
1.652
1.647
1.662
1.662
1.637
1.637
1.657
1.657
1.647
1.637
1.647
1.657
1.637
1.628
1.647
1.657
1.647
1.642
1.642
1.657
1.642
1.628
1.637
1.657
1.652
1.647
1.647
1.662
1.662
1.637
1.642
1.662
1.662
1.657
1.647
1.652
1.657
1.628
1.618
1.632
1.647
1.652
1.652
1.662
1.686
1.676
1.662
1.672
1.681
1.667
1.647
1.637
1.652
1.647
1.628
1.632
1.657
1.667
1.662
1.662
1.676
1.686
1.667
1.652
1.662
1.667
1.657
1.642
1.647
1.662
1.657
1.637
1.647
1.662
1.657
1.652
1.652
1.667
1.667
1.642
1.642
1.652
1.652
1.642
1.637
1.647
1.662
1.642
1.642
1.657
1.672
1.662
1.657
1.657
1.667
1.652
1.628
1.632
1.647
1.652
1.647
1.647
1.667
1.667
1.647
1.647
1.667
1.667
1.657
1.657
1.667
1.676
1.657
1.647
1.662
1.667
1.652
1.642
1.642
1.657
1.647
1.632
1.642
1.657
1.657
1.647
1.647
1.662
1.662
1.642
1.647
1.667
1.667
1.657
1.647
1.657
1.662
1.647
1.642
1.662
1.672
1.667
1.662
1.672
1.686
1.672
1.652
1.662
1.672
1.672
1.672
1.672
1.691
1.701
1.676
1.681
1.696
1.701
1.696
1.691
1.696
1.706
1.686
1.676
1.686
1.691
1.676
1.662
1.657
1.672
1.657
1.642
1.652
1.672
1.667
1.657
1.652
1.667
1.662
1.637
1.637
1.652
1.657
1.652
1.647
1.657
1.662
1.637
1.628
1.642
1.652
1.642
1.628
1.632
1.657
1.652
1.642
1.652
1.672
1.676
1.667
1.672
1.681
1.681
1.652
1.642
1.652
1.652
1.647
1.642
1.662
1.676
1.667
1.662
1.681
1.701
1.701
1.701
1.72
1.745
1.75
1.745
1.764
1.789
1.789
1.774
1.764
1.755
1.73
1.681
1.652
1.637
1.608
1.579
1.559
1.559
1.574
1.564
1.574
1.613
1.647
1.662
1.672
1.691
1.711
1.696
1.672
1.672
1.681
1.676
1.667
1.672
1.691
1.696
1.676
1.676
1.696
1.701
1.691
1.686
1.691
1.706
1.681
1.676
1.691
1.706
1.701
1.696
1.701
1.716
1.711
1.691
1.696
1.711
1.706
1.696
1.691
1.711
1.716
1.691
1.691
1.711
1.716
1.711
1.711
1.725
1.74
1.72
1.716
1.725
1.735
1.73
1.72
1.72
1.735
1.725
1.706
1.716
1.73
1.73
1.725
1.725
1.74
1.745
1.725
1.73
1.75
1.755
1.75
1.745
1.755
1.764
1.745
1.735
1.75
1.764
1.755
1.75
1.76
1.779
1.774
1.755
1.764
1.784
1.784
1.779
1.774
1.784
1.784
1.764
1.769
1.784
1.784
1.774
1.769
1.779
1.789
1.769
1.764
1.779
1.789
1.779
1.769
1.769
1.784
1.764
1.74
1.745
1.764
1.76
1.755
1.76
1.774
1.774
1.745
1.74
1.74
1.73
1.716
1.696
1.696
1.701
1.676
1.662
1.672
1.676
1.667
1.652
1.657
1.667
1.657
1.642
1.652
1.667
1.662
1.652
1.652
1.662
1.667
1.647
1.647
1.667
1.672
1.662
1.657
1.667
1.672
1.647
1.632
1.642
1.647
1.642
1.632
1.632
1.647
1.637
1.623
1.632
1.647
1.652
1.647
1.652
1.667
1.672
1.642
1.637
1.652
1.652
1.642
1.632
1.647
1.657
1.642
1.632
1.652
1.662
1.657
1.652
1.662
1.676
1.667
1.652
1.662
1.672
1.667
1.647
1.642
1.652
1.657
1.637
1.642
1.672
1.681
1.676
1.672
1.681
1.686
1.657
1.642
1.657
1.662
1.657
1.652
1.662
1.676
1.667
1.647
1.652
1.662
1.652
1.642
1.642
1.662
1.667
1.652
1.657
1.676
1.676
1.667
1.652
1.667
1.676
1.657
1.642
1.657
1.672
1.672
1.672
1.672
1.691
1.676
1.652
1.652
1.657
1.652
1.642
1.647
1.662
1.672
1.652
1.662
1.681
1.691
1.681
1.672
1.672
1.672
1.647
1.632
1.647
1.657
1.652
1.647
1.657
1.676
1.667
1.647
1.657
1.667
1.662
1.652
1.657
1.672
1.676
1.657
1.657
1.676
1.676
1.667
1.657
1.667
1.676
1.657
1.652
1.672
1.681
1.676
1.672
1.676
1.691
1.681
1.657
1.667
1.681
1.681
1.667
1.662
1.672
1.672
1.647
1.657
1.681
1.691
1.691
1.691
1.701
1.716
1.691
1.681
1.696
1.701
1.696
1.691
1.701
1.716
1.706
1.681
1.686
1.696
1.681
1.662
1.652
1.667
1.667
1.647
1.652
1.672
1.676
1.672
1.676
1.686
1.701
1.681
1.662
1.672
1.672
1.662
1.642
1.642
1.657
1.647
1.632
1.642
1.662
1.662
1.662
1.657
1.662
1.657
1.632
1.632
1.652
1.657
1.652
1.647
1.662
1.676
1.662
1.652
1.667
1.676
1.672
1.662
1.667
1.686
1.681
1.672
1.686
1.706
1.716
1.716
1.725
1.755
1.769
1.75
1.755
1.779
1.774
1.755
1.73
1.72
1.706
1.662
1.618
1.603
1.588
1.564
1.544
1.549
1.574
1.579
1.579
1.613
1.652
1.676
1.681
1.686
1.706
1.711
1.681
1.681
1.701
1.706
1.691
1.686
1.696
1.701
1.676
1.662
1.681
1.696
1.696
1.696
1.701
1.716
1.706
1.686
1.691
1.706
1.701
1.691
1.686
1.706
1.716
1.701
1.706
1.72
1.72
1.711
1.701
1.711
1.716
1.696
1.681
1.701
1.716
1.711
1.711
1.72
1.735
1.725
1.706
1.716
1.735
1.73
1.716
1.716
1.73
1.735
1.716
1.716
1.73
1.74
1.73
1.725
1.74
1.755
1.735
1.725
1.745
1.755
1.76
1.76
1.769
1.784
1.769
1.745
1.745
1.76
1.76
1.755
1.76
1.779
1.789
1.774
1.779
1.799
1.799
1.789
1.779
1.789
1.794
1.774
1.764
1.779
1.794
1.789
1.784
1.789
1.804
1.794
1.774
1.784
1.799
1.794
1.779
1.774
1.779
1.779
1.75
1.745
1.76
1.76
1.745
1.74
1.74
1.75
1.73
1.716
1.725
1.735
1.725
1.711
1.711
1.72
1.706
1.681
1.681
1.691
1.681
1.662
1.652
1.662
1.667
1.642
1.642
1.662
1.672
1.662
1.657
1.667
1.676
1.652
1.642
1.647
1.652
1.642
1.632
1.637
1.647
1.642
1.628
1.642
1.657
1.652
1.642
1.637
1.652
1.657
1.632
1.637
1.657
1.662
1.657
1.657
1.662
1.672
1.647
1.637
1.647
1.657
1.652
1.652
1.657
1.672
1.662
1.637
1.642
1.657
1.652
1.642
1.642
1.662
1.662
1.637
1.632
1.652
1.652
1.647
1.642
1.657
1.676
1.662
1.652
1.667
1.676
1.667
1.652
1.647
1.657
1.647
1.632
1.642
1.667
1.667
1.662
1.662
1.676
1.676
1.647
1.642
1.652
1.652
1.647
1.642
1.657
1.672
1.657
1.647
1.657
1.667
1.657
1.647
1.647
1.657
1.647
1.632
1.647
1.667
1.662
1.652
1.652
1.667
1.667
1.637
1.632
1.647
1.652
1.647
1.642
1.652
1.662
1.647
1.642
1.657
1.667
1.662
1.652
1.652
1.667
1.652
1.632
1.647
1.667
1.667
1.667
1.667
1.672
1.676
1.652
1.647
1.662
1.662
1.652
1.647
1.657
1.676
1.662
1.657
1.672
1.686
1.686
1.681
1.691
1.706
1.701
1.681
1.686
1.701
1.686
1.667
1.652
1.662
1.657
1.632
1.628
1.647
1.652
1.652
1.647
1.657
1.667
1.652
1.642
1.657
1.667
1.662
1.647
1.652
1.667
1.657
1.632
1.632
1.647
1.647
1.642
1.642
1.667
1.672
1.652
1.657
1.672
1.676
1.662
1.652
1.657
1.657
1.637
1.623
1.637
1.652
1.647
1.642
1.652
1.672
1.667
1.652
1.662
1.681
1.681
1.681
1.686
1.706
1.716
1.701
1.706
1.73
1.74
1.735
1.725
1.735
1.735
1.696
1.667
1.652
1.632
1.593
1.554
1.53
1.53
1.515
1.5
1.525
1.559
1.584
1.603
1.632
1.672
1.691
1.676
1.681
1.701
1.696
1.681
1.672
1.681
1.691
1.676
1.662
1.676
1.686
1.681
1.672
1.676
1.691
1.686
1.672
1.681
1.701
1.701
1.696
1.691
1.706
1.706
1.681
1.676
1.691
1.696
1.696
1.696
1.711
1.72
1.701
1.691
1.701
1.711
1.701
1.691
1.696
1.716
1.711
1.696
1.706
1.725
1.72
1.711
1.706
1.72
1.72
1.701
1.706
1.72
1.73
1.725
1.72
1.735
1.745
1.725
1.711
1.725
1.745
1.74
1.73
1.74
1.76
1.76
1.745
1.76
1.774
1.774
1.769
1.764
1.774
1.774
1.755
1.755
1.769
1.774
1.774
1.779
1.799
1.813
1.799
1.784
1.789
1.789
1.774
1.755
1.755
1.764
1.76
1.745
1.764
1.789
1.794
1.784
1.779
1.784
1.779
1.75
1.74
1.755
1.76
1.75
1.745
1.755
1.76
1.74
1.72
1.725
1.73
1.72
1.716
1.711
1.725
1.716
1.691
1.696
1.706
1.696
1.681
1.672
1.681
1.681
1.652
1.647
1.662
1.662
1.652
1.642
1.652
1.662
1.647
1.637
1.652
1.662
1.652
1.642
1.642
1.662
1.647
1.623
1.628
1.642
1.642
1.637
1.637
1.647
1.652
1.632
1.632
1.647
1.652
1.642
1.632
1.637
1.652
1.632
1.623
1.637
1.652
1.647
1.642
1.652
1.672
1.672
1.652
1.657
1.672
1.672
1.662
1.657
1.672
1.672
1.642
1.642
1.657
1.657
1.647
1.642
1.647
1.662
1.647
1.637
1.652
1.662
1.657
1.647
1.647
1.662
1.652
1.632
1.642
1.657
1.657
1.647
1.647
1.657
1.662
1.642
1.637
1.657
1.662
1.657
1.652
1.662
1.672
1.652
1.637
1.652
1.662
1.652
1.642
1.642
1.657
1.647
1.632
1.642
1.662
1.667
1.662
1.662
1.681
1.681
1.657
1.647
1.662
1.662
1.652
1.642
1.652
1.667
1.647
1.637
1.647
1.662
1.657
1.647
1.652
1.667
1.657
1.637
1.647
1.662
1.657
1.647
1.642
1.657
1.662
1.642
1.647
1.667
1.676
1.672
1.667
1.681
1.691
1.667
1.647
1.657
1.662
1.657
1.647
1.652
1.667
1.662
1.647
1.657
1.676
1.676
1.667
1.662
1.676
1.676
1.652
1.647
1.662
1.662
1.657
1.657
1.672
1.691
1.681
1.676
1.696
1.706
1.696
1.681
1.681
1.696
1.686
1.662
1.667
1.681
1.676
1.667
1.662
1.672
1.672
1.647
1.647
1.662
1.672
1.662
1.657
1.667
1.676
1.657
1.642
1.652
1.667
1.657
1.647
1.647
1.657
1.647
1.628
1.637
1.657
1.662
1.662
1.662
1.676
1.676
1.647
1.642
1.652
1.652
1.637
1.632
1.642
1.657
1.647
1.637
1.652
1.667
1.667
1.652
1.657
1.667
1.662
1.647
1.662
1.691
1.696
1.701
1.716
1.745
1.764
1.76
1.769
1.789
1.784
1.76
1.735
1.72
1.701
1.657
1.618
1.598
1.584
1.559
1.54
1.544
1.564
1.569
1.569
1.598
1.637
1.657
1.667
1.681
1.701
1.711
1.681
1.676
1.691
1.696
1.686
1.676
1.686
1.691
1.676
1.657
1.676
1.686
1.681
1.672
1.676
1.696
1.691
1.672
1.681
1.701
1.701
1.691
1.691
1.711
1.711
1.691
1.686
1.701
1.711
1.701
1.701
1.711
1.72
1.706
1.691
1.706
1.72
1.716
1.706
1.706
1.716
1.706
1.686
1.696
1.72
1.72
1.716
1.72
1.735
1.74
1.711
1.701
1.716
1.72
1.716
1.716
1.73
1.75
1.745
1.74
1.76
1.769
1.764
1.755
1.755
1.769
1.764
1.74
1.745
1.764
1.769
1.764
1.76
1.774
1.779
1.755
1.75
1.764
1.769
1.764
1.764
1.779
1.799
1.779
1.764
1.774
1.784
1.774
1.76
1.755
1.764
1.755
1.735
1.745
1.764
1.764
1.76
1.76
1.784
1.794
1.774
1.769
1.779
1.774
1.76
1.74
1.74
1.74
1.716
1.696
1.706
1.711
1.701
1.686
1.686
1.701
1.696
1.676
1.681
1.696
1.696
1.686
1.681
1.691
1.686
1.652
1.642
1.657
1.662
1.652
1.642
1.652
1.662
1.647
1.632
1.647
1.662
1.652
1.637
1.632
1.642
1.632
1.608
1.618
1.637
1.642
1.637
1.642
1.657
1.662
1.632
1.623
1.632
1.632
1.628
1.623
1.642
1.667
1.662
1.662
1.686
1.701
1.696
1.681
1.676
1.681
1.662
1.632
1.632
1.647
1.647
1.642
1.642
1.662
1.672
1.647
1.647
1.662
1.662
1.647
1.642
1.652
1.667
1.652
1.642
1.657
1.672
1.667
1.652
1.647
1.657
1.642
1.618
1.623
1.637
1.632
1.623
1.623
1.647
1.667
1.657
1.657
1.681
1.691
1.686
1.681
1.686
1.691
1.667
1.642
1.647
1.652
1.647
1.632
1.637
1.652
1.647
1.632
1.642
1.662
1.662
1.662
1.652
1.662
1.667
1.642
1.632
1.647
1.652
1.642
1.637
1.647
1.657
1.647
1.632
1.647
1.657
1.652
1.647
1.652
1.667
1.667
1.642
1.647
1.662
1.657
1.642
1.642
1.657
1.662
1.642
1.637
1.657
1.657
1.652
1.642
1.647
1.657
1.637
1.628
1.642
1.662
1.657
1.647
1.652
1.667
1.662
1.647
1.657
1.672
1.672
1.662
1.657
1.672
1.681
1.662
1.662
1.676
1.691
1.686
1.681
1.691
1.701
1.686
1.672
1.681
1.691
1.686
1.672
1.672
1.681
1.667
1.642
1.637
1.647
1.642
1.637
1.642
1.662
1.667
1.647
1.647
1.667
1.667
1.652
1.632
1.637
1.647
1.628
1.623
1.637
1.647
1.647
1.642
1.647
1.662
1.652
1.623
1.628
1.652
1.657
1.647
1.647
1.657
1.662
1.637
1.632
1.647
1.657
1.652
1.642
1.652
1.662
1.647
1.637
1.652
1.672
1.676
1.676
1.686
1.711
1.711
1.696
1.706
1.73
1.74
1.74
1.75
1.769
1.774
1.75
1.725
1.72
1.701
1.662
1.623
1.598
1.584
1.554
1.54
1.554
1.579
1.588
1.598
1.623
1.657
1.667
1.657
1.667
1.686
1.686
1.676
1.672
1.681
1.681
1.662
1.657
1.672
1.676
1.667
1.662
1.676
1.691
1.676
1.657
1.672
1.681
1.676
1.662
1.662
1.676
1.681
1.667
1.676
1.696
1.696
1.691
1.691
1.701
1.706
1.681
1.676
1.701
1.711
1.711
1.706
1.716
1.73
1.716
1.701
1.711
1.72
1.711
1.701
1.701
1.716
1.711
1.691
1.701
1.72
1.725
1.72
1.716
1.73
1.735
1.716
1.706
1.72
1.725
1.72
1.725
1.735
1.755
1.74
1.735
1.75
1.764
1.76
1.75
1.75
1.76
1.75
1.725
1.73
1.75
1.75
1.745
1.745
1.764
1.779
1.764
1.76
1.779
1.784
1.774
1.76
1.764
1.774
1.76
1.745
1.76
1.774
1.774
1.774
1.774
1.784
1.774
1.745
1.745
1.76
1.76
1.75
1.745
1.755
1.764
1.74
1.73
1.745
1.74
1.725
1.716
1.72
1.73
1.711
1.691
1.696
1.701
1.686
1.667
1.657
1.662
1.642
1.618
1.623
1.647
1.652
1.642
1.647
1.662
1.672
1.647
1.642
1.652
1.657
1.647
1.637
1.647
1.667
1.657
1.642
1.652
1.662
1.647
1.632
1.632
1.647
1.647
1.623
1.628
1.642
1.642
1.637
1.632
1.642
1.647
1.623
1.623
1.642
1.652
1.652
1.652
1.662
1.681
1.667
1.652
1.657
1.672
1.667
1.652
1.652
1.667
1.662
1.642
1.647
1.662
1.662
1.647
1.642
1.652
1.662
1.647
1.647
1.667
1.676
1.672
1.662
1.667
1.676
1.657
1.642
1.652
1.662
1.657
1.647
1.647
1.662
1.662
1.642
1.642
1.662
1.667
1.662
1.657
1.672
1.676
1.652
1.647
1.662
1.667
1.662
1.662
1.667
1.676
1.667
1.652
1.662
1.676
1.672
1.662
1.667
1.681
1.667
1.637
1.637
1.652
1.647
1.637
1.637
1.652
1.662
1.657
1.662
1.681
1.686
1.676
1.667
1.667
1.672
1.652
1.632
1.642
1.657
1.657
1.652
1.657
1.676
1.681
1.667
1.672
1.681
1.681
1.667
1.662
1.672
1.672
1.642
1.632
1.647
1.652
1.647
1.637
1.647
1.667
1.662
1.652
1.672
1.681
1.676
1.672
1.676
1.686
1.681
1.652
1.652
1.667
1.676
1.676
1.686
1.706
1.72
1.701
1.691
1.706
1.706
1.701
1.691
1.691
1.706
1.691
1.672
1.686
1.696
1.686
1.672
1.662
1.667
1.662
1.642
1.647
1.667
1.667
1.657
1.647
1.657
1.672
1.652
1.657
1.676
1.691
1.686
1.681
1.686
1.691
1.667
1.642
1.647
1.652
1.647
1.642
1.647
1.667
1.662
1.642
1.647
1.667
1.667
1.662
1.662
1.676
1.686
1.667
1.657
1.676
1.681
1.672
1.667
1.676
1.691
1.686
1.681
1.701
1.72
1.73
1.73
1.74
1.764
1.774
1.755
1.76
1.774
1.774
1.755
1.73
1.72
1.701
1.652
1.618
1.608
1.593
1.569
1.554
1.559
1.584
1.588
1.593
1.632
1.667
1.686
1.696
1.706
1.725
1.72
1.691
1.686
1.701
1.691
1.672
1.662
1.676
1.686
1.676
1.681
1.711
1.725
1.725
1.72
1.725
1.73
1.706
1.681
1.686
1.701
1.696
1.691
1.696
1.716
1.716
1.696
1.696
1.711
1.711
1.706
1.706
1.72
1.73
1.711
1.701
1.72
1.725
1.711
1.691
1.696
1.716
1.711
1.701
1.72
1.735
1.73
1.725
1.725
1.74
1.735
1.706
1.701
1.72
1.73
1.73
1.735
1.75
1.764
1.74
1.735
1.75
1.76
1.755
1.75
1.76
1.774
1.764
1.755
1.764
1.784
1.779
1.769
1.769
1.784
1.779
1.755
1.755
1.774
1.774
1.774
1.769
1.784
1.799
1.779
1.774
1.789
1.794
1.779
1.769
1.774
1.789
1.774
1.76
1.774
1.789
1.784
1.769
1.764
1.774
1.769
1.75
1.755
1.774
1.769
1.76
1.755
1.755
1.75
1.72
1.706
1.711
1.706
1.691
1.676
1.681
1.691
1.672
1.652
1.657
1.672
1.667
1.657
1.662
1.676
1.681
1.662
1.667
1.681
1.681
1.667
1.657
1.657
1.657
1.632
1.628
1.652
1.667
1.667
1.657
1.662
1.672
1.652
1.632
1.637
1.642
1.637
1.637
1.642
1.662
1.662
1.642
1.642
1.662
1.657
1.647
1.647
1.657
1.662
1.642
1.637
1.657
1.676
1.672
1.662
1.662
1.662
1.642
1.623
1.628
1.647
1.647
1.642
1.647
1.667
1.667
1.647
1.652
1.667
1.672
1.667
1.667
1.681
1.696
1.676
1.667
1.681
1.681
1.672
1.657
1.662
1.676
1.667
1.647
1.657
1.667
1.657
1.642
1.642
1.657
1.662
1.642
1.647
1.667
1.672
1.667
1.662
1.676
1.681
1.662
1.657
1.667
1.676
1.672
1.662
1.667
1.676
1.657
1.642
1.647
1.662
1.652
1.642
1.637
1.652
1.657
1.637
1.642
1.662
1.667
1.662
1.667
1.676
1.686
1.662
1.652
1.662
1.672
1.662
1.652
1.657
1.672
1.657
1.642
1.642
1.662
1.657
1.652
1.662
1.681
1.691
1.672
1.676
1.696
1.696
1.681
1.672
1.681
1.691
1.676
1.667
1.686
1.696
1.686
1.672
1.672
1.686
1.672
1.657
1.667
1.676
1.672
1.662
1.667
1.681
1.676
1.647
1.642
1.662
1.676
1.681
1.691
1.706
1.72
1.696
1.681
1.696
1.701
1.686
1.662
1.652
1.662
1.647
1.637
1.652
1.667
1.672
1.672
1.681
1.696
1.691
1.657
1.657
1.672
1.676
1.657
1.647
1.657
1.672
1.642
1.628
1.637
1.642
1.637
1.642
1.672
1.711
1.725
1.735
1.769
1.794
1.789
1.769
1.764
1.789
1.804
1.784
1.769
1.75
1.72
1.681
1.647
1.642
1.647
1.642
1.672
1.735
1.789
1.818
1.843
1.862
1.862
1.813
1.75
1.73
1.73
1.735
1.735
1.735
1.745
1.735
1.681
1.632
1.579
1.505
1.432
1.378
1.364
1.369
1.373
1.422
1.515
1.598
1.652
1.672
1.676
1.667
1.623
1.579
1.559
1.559
1.554
1.564
1.598
1.657
1.706
1.716
1.74
1.764
1.76
1.73
1.711
1.711
1.716
1.701
1.691
1.706
1.716
1.706
1.696
1.691
1.681
1.637
1.598
1.593
1.613
1.623
1.632
1.642
1.657
1.637
1.588
1.569
1.584
1.608
1.632
1.672
1.72
1.764
1.764
1.755
1.755
1.74
1.701
1.657
1.637
1.642
1.647
1.662
1.681
1.691
1.681
1.667
1.667
1.691
1.711
1.725
1.755
1.799
1.813
1.804
1.784
1.779
1.76
1.716
1.676
1.676
1.676
1.662
1.657
1.662
1.672
1.657
1.642
1.657
1.686
1.701
1.716
1.74
1.769
1.774
1.76
1.76
1.764
1.74
1.72
1.72
1.735
1.75
1.725
1.716
1.73
1.75
1.764
1.784
1.813
1.857
1.877
1.882
1.906
1.916
1.896
1.857
1.828
1.804
1.76
1.706
1.691
1.716
1.73
1.745
1.76
1.784
1.808
1.799
1.784
1.755
1.691
1.603
1.515
1.447
1.417
1.408
1.427
1.5
1.579
1.637
1.672
1.696
1.72
1.706
1.632
1.564
1.52
1.491
1.471
1.481
1.525
1.574
1.598
1.618
1.657
1.686
1.691
1.681
1.667
1.657
1.628
1.603
1.608
1.623
1.628
1.632
1.647
1.672
1.676
1.652
1.632
1.613
1.574
1.53
1.486
1.461
1.452
1.427
1.432
1.476
1.525
1.549
1.554
1.564
1.584
1.574
1.544
1.535
1.52
1.491
1.476
1.486
1.505
1.51
1.5
1.525
1.569
1.598
1.628
1.652
1.676
1.681
1.642
1.603
1.584
1.559
1.535
1.52
1.54
1.564
1.559
1.54
1.54
1.549
1.554
1.549
1.544
1.559
1.574
1.549
1.52
1.505
1.481
1.452
1.417
1.413
1.422
1.427
1.442
1.466
1.471
1.452
1.422
1.398
1.403
1.398
1.413
1.466
1.54
1.598
1.632
1.652
1.657
1.623
1.559
1.515
1.491
1.471
1.457
1.452
1.471
1.491
1.491
1.515
1.554
1.579
1.564
1.535
1.51
1.5
1.481
1.457
1.457
1.476
1.5
1.525
1.574
1.637
1.667
1.637
1.598
1.559
1.515
1.481
1.471
1.481
1.5
1.5
1.51
1.544
1.584
1.608
1.623
1.642
1.657
1.642
1.618
1.608
1.593
1.564
1.544
1.544
1.584
1.628
1.657
1.696
1.735
1.73
1.696
1.637
1.593
1.564
1.53
1.535
1.588
1.642
1.681
1.696
1.701
1.701
1.672
1.623
1.608
1.603
1.608
1.613
1.637
1.686
1.716
1.716
1.72
1.725
1.72
1.706
1.696
1.686
1.676
1.647
1.637
1.657
1.681
1.696
1.696
1.691
1.676
1.632
1.584
1.564
1.564
1.569
1.584
1.628
1.706
1.774
1.804
1.823
1.838
1.823
1.784
1.745
1.725
1.711
1.676
1.676
1.711
1.725
1.716
1.711
1.706
1.706
1.676
1.623
1.588
1.559
1.525
1.5
1.486
1.51
1.544
1.569
1.613
1.667
1.706
1.725
1.725
1.711
1.681
1.642
1.623
1.637
1.657
1.662
1.662
1.667
1.672
1.657
1.637
1.642
1.662
1.686
1.701
1.716
1.72
1.72
1.696
1.701
1.725
1.76
1.784
1.794
1.794
1.784
1.735
1.696
1.662
1.618
1.564
1.54
1.559
1.608
1.652
1.691
1.755
1.804
1.808
1.774
1.716
1.667
1.618
1.579
1.569
1.579
1.584
1.598
1.632
1.691
1.74
1.735
1.735
1.755
1.774
1.794
1.828
1.872
1.906
1.911
1.921
1.965
1.984
1.95
1.887
1.833
1.813
1.789
1.755
1.75
1.779
1.808
1.833
1.828
1.813
1.794
1.755
1.725
1.72
1.725
1.73
1.755
1.804
1.852
1.867
1.843
1.813
1.784
1.75
1.72
1.716
1.74
1.764
1.784
1.818
1.857
1.887
1.906
1.921
1.935
1.94
1.896
1.843
1.799
1.75
1.701
1.676
1.676
1.696
1.701
1.706
1.735
1.745
1.72
1.681
1.676
1.711
1.75
1.769
1.808
1.857
1.877
1.867
1.838
1.794
1.73
1.652
1.608
1.618
1.652
1.681
1.701
1.711
1.73
1.73
1.72
1.725
1.725
1.701
1.662
1.632
1.628
1.637
1.642
1.672
1.725
1.76
1.764
1.755
1.75
1.73
1.676
1.637
1.637
1.652
1.662
1.701
1.76
1.828
1.872
1.887
1.891
1.887
1.862
1.828
1.789
1.755
1.706
1.637
1.603
1.608
1.613
1.613
1.628
1.667
1.711
1.73
1.75
1.789
1.818
1.794
1.725
1.662
1.618
1.579
1.54
1.535
1.564
1.598
1.623
1.642
1.672
1.672
1.628
1.588
1.579
1.593
1.637
1.706
1.779
1.808
1.769
1.711
1.662
1.628
1.603
1.608
1.662
1.74
1.779
1.779
1.779
1.755
1.686
1.588
1.505
1.461
1.447
1.452
1.5
1.584
1.647
1.672
1.667
1.652
1.628
1.584
1.544
1.53
1.525
1.51
1.51
1.525
1.544
1.544
1.53
1.535
1.574
1.618
1.662
1.706
1.74
1.745
1.716
1.711
1.74
1.745
1.716
1.696
1.711
1.74
1.745
1.745
1.75
1.745
1.72
1.691
1.667
1.657
1.632
1.603
1.608
1.637
1.652
1.662
1.691
1.745
1.784
1.779
1.779
1.784
1.774
1.769
1.774
1.784
1.799
1.794
1.779
1.755
1.691
1.593
1.491
1.403
1.354
1.32
1.3
1.334
1.422
1.53
1.642
1.745
1.823
1.857
1.828
1.784
1.75
1.701
1.628
1.544
1.476
1.452
1.442
1.471
1.53
1.598
1.657
1.696
1.716
1.73
1.725
1.725
1.755
1.784
1.789
1.808
1.848
1.916
1.97
1.975
1.95
1.916
1.867
1.813
1.755
1.696
1.676
1.662
1.657
1.681
1.716
1.74
1.764
1.794
1.823
1.813
1.774
1.745
1.73
1.691
1.642
1.603
1.588
1.584
1.569
1.584
1.628
1.662
1.672
1.662
1.672
1.711
1.725
1.725
1.735
1.73
1.72
1.73
1.75
1.779
1.784
1.784
1.799
1.813
1.828
1.813
1.794
1.799
1.808
1.808
1.848
1.916
1.965
1.979
1.975
1.965
1.945
1.877
1.789
1.73
1.696
1.672
1.672
1.706
1.74
1.75
1.74
1.74
1.735
1.696
1.657
1.613
1.579
1.564
1.559
1.623
1.725
1.813
1.857
1.872
1.891
1.877
1.813
1.74
1.686
1.632
1.579
1.554
1.598
1.681
1.764
1.818
1.862
1.891
1.921
1.96
2.009
2.053
2.077
2.092
2.107
2.111
2.082
2.038
2.004
1.979
1.95
1.901
1.838
1.804
1.784
1.76
1.73
1.711
1.706
1.691
1.667
1.672
1.716
1.769
1.813
1.833
1.862
1.906
1.911
1.906
1.896
1.857
1.804
1.779
1.779
1.769
1.72
1.686
1.706
1.725
1.711
1.681
1.662
1.642
1.598
1.574
1.603
1.662
1.701
1.73
1.75
1.774
1.784
1.755
1.73
1.735
1.745
1.755
1.755
1.755
1.764
1.755
1.745
1.745
1.75
1.75
1.745
1.725
1.72
1.706
1.691
1.72
1.794
1.867
1.935
1.989
2.028
2.033
1.979
1.882
1.764
1.642
1.53
1.437
1.383
1.378
1.388
1.408
1.447
1.471
1.481
1.476
1.486
1.53
1.569
1.588
1.623
1.657
1.676
1.711
1.774
1.843
1.896
1.901
1.906
1.911
1.887
1.833
1.764
1.716
1.706
1.691
1.676
1.686
1.701
1.706
1.701
1.676
1.642
1.588
1.54
1.549
1.598
1.632
1.628
1.632
1.676
1.706
1.681
1.652
1.618
1.535
1.471
1.447
1.461
1.496
1.544
1.647
1.789
1.867
1.867
1.808
1.686
1.535
1.373
1.266
1.281
1.403
1.584
1.769
1.95
2.107
2.18
2.151
2.077
1.989
1.867
1.73
1.623
1.569
1.584
1.588
1.588
1.613
1.637
1.652
1.681
1.716
1.74
1.72
1.657
1.598
1.544
1.486
1.422
1.364
1.325
1.315
1.32
1.388
1.476
1.535
1.574
1.613
1.652
1.667
1.642
1.637
1.676
1.745
1.808
1.857
1.891
1.931
1.926
1.887
1.843
1.774
1.681
1.618
1.628
1.706
1.789
1.808
1.813
1.808
1.76
1.667
1.584
1.53
1.515
1.496
1.491
1.53
1.598
1.647
1.672
1.686
1.676
1.632
1.564
1.515
1.496
1.486
1.5
1.525
1.569
1.632
1.691
1.74
1.799
1.857
1.906
1.891
1.848
1.784
1.711
1.623
1.559
1.53
1.496
1.442
1.417
1.432
1.481
1.535
1.603
1.623
1.574
1.491
1.417
1.383
1.383
1.403
1.481
1.613
1.779
1.945
2.067
2.136
2.175
2.185
2.199
2.214
2.19
2.136
2.116
2.136
2.175
2.136
1.999
1.828
1.676
1.554
1.461
1.393
1.349
1.31
1.285
1.3
1.334
1.32
1.281
1.256
1.256
1.281
1.305
1.315
1.359
1.447
1.554
1.672
1.76
1.794
1.779
1.769
1.794
1.808
1.755
1.667
1.613
1.618
1.652
1.662
1.686
1.745
1.808
1.857
1.887
1.887
1.857
1.794
1.725
1.706
1.696
1.701
1.72
1.745
1.764
1.75
1.706
1.662
1.623
1.584
1.554
1.549
1.598
1.691
1.774
1.833
1.848
1.804
1.725
1.642
1.554
1.466
1.354
1.271
1.241
1.261
1.285
1.32
1.369
1.466
1.584
1.657
1.711
1.735
1.735
1.725
1.73
1.735
1.745
1.73
1.73
1.75
1.794
1.848
1.926
1.999
2.023
1.989
1.945
1.935
1.926
1.877
1.818
1.799
1.818
1.828
1.808
1.808
1.823
1.799
1.716
1.608
1.51
1.442
1.383
1.344
1.349
1.413
1.496
1.574
1.637
1.701
1.735
1.764
1.823
1.872
1.896
1.891
1.872
1.843
1.789
1.74
1.735
1.755
1.745
1.701
1.667
1.667
1.672
1.642
1.632
1.662
1.701
1.716
1.72
1.735
1.75
1.735
1.701
1.686
1.667
1.632
1.608
1.608
1.623
1.623
1.608
1.623
1.642
1.632
1.613
1.593
1.588
1.598
1.608
1.623
1.657
1.672
1.686
1.706
1.74
1.764
1.735
1.652
1.579
1.52
1.471
1.437
1.452
1.486
1.496
1.471
1.476
1.53
1.608
1.701
1.774
1.843
1.901
1.916
1.911
1.877
1.794
1.691
1.584
1.486
1.432
1.417
1.442
1.496
1.54
1.559
1.574
1.588
1.598
1.613
1.623
1.637
1.647
1.628
1.579
1.5
1.408
1.334
1.334
1.427
1.569
1.711
1.818
1.882
1.921
1.935
1.901
1.828
1.774
1.75
1.72
1.696
1.696
1.74
1.779
1.779
1.779
1.764
1.716
1.657
1.593
1.554
1.544
1.52
1.51
1.525
1.52
1.53
1.554
1.608
1.657
1.657
1.652
1.657
1.662
1.642
1.603
1.569
1.559
1.544
1.525
1.53
1.549
1.554
1.559
1.579
1.618
1.662
1.676
1.691
1.735
1.794
1.838
1.891
1.945
1.984
1.994
1.95
1.867
1.764
1.657
1.569
1.515
1.486
1.476
1.481
1.535
1.637
1.755
1.852
1.887
1.867
1.779
1.657
1.554
1.476
1.413
1.364
1.359
1.422
1.544
1.681
1.804
1.921
2.009
2.043
1.999
1.877
1.716
1.535
1.359
1.256
1.222
1.237
1.329
1.515
1.745
1.96
2.092
2.165
2.195
2.175
2.107
1.984
1.828
1.652
1.476
1.344
1.31
1.329
1.339
1.344
1.383
1.466
1.544
1.584
1.598
1.603
1.608
1.628
1.642
1.672
1.686
1.667
1.637
1.628
1.613
1.598
1.588
1.608
1.628
1.637
1.681
1.764
1.838
1.838
1.813
1.799
1.813
1.833
1.833
1.843
1.872
1.867
1.823
1.774
1.76
1.764
1.73
1.696
1.711
1.764
1.838
1.906
1.935
1.911
1.789
1.623
1.457
1.31
1.207
1.183
1.232
1.339
1.481
1.632
1.774
1.891
1.935
1.916
1.852
1.784
1.72
1.657
1.613
1.608
1.584
1.554
1.549
1.579
1.623
1.662
1.72
1.808
1.911
1.979
2.004
1.984
1.931
1.852
1.75
1.657
1.608
1.598
1.598
1.549
1.491
1.457
1.432
1.432
1.471
1.52
1.584
1.667
1.76
1.848
1.921
1.945
1.921
1.857
1.784
1.72
1.676
1.686
1.735
1.794
1.852
1.901
1.901
1.852
1.804
1.784
1.813
1.862
1.911
1.955
1.955
1.882
1.74
1.603
1.481
1.339
1.222
1.188
1.256
1.383
1.52
1.652
1.774
1.857
1.867
1.852
1.852
1.867
1.921
1.989
2.028
2.019
1.975
1.94
1.901
1.808
1.686
1.579
1.515
1.5
1.53
1.618
1.784
1.95
2.072
2.136
2.131
2.097
2.043
1.979
1.94
1.926
1.911
1.911
1.96
2.033
2.019
1.882
1.716
1.613
1.579
1.588
1.588
1.613
1.647
1.657
1.652
1.657
1.652
1.623
1.584
1.549
1.564
1.598
1.588
1.569
1.579
1.613
1.696
1.779
1.872
1.916
1.891
1.848
1.823
1.779
1.73
1.701
1.735
1.833
1.916
1.994
2.067
2.077
1.984
1.828
1.672
1.554
1.471
1.437
1.466
1.549
1.637
1.691
1.74
1.813
1.867
1.862
1.804
1.72
1.608
1.481
1.32
1.173
1.105
1.1
1.178
1.364
1.628
1.862
2.009
2.092
2.131
2.072
1.916
1.74
1.579
1.457
1.432
1.496
1.608
1.711
1.769
1.804
1.818
1.784
1.72
1.657
1.588
1.549
1.544
1.564
1.588
1.618
1.637
1.652
1.662
1.681
1.725
1.779
1.823
1.848
1.833
1.804
1.799
1.818
1.823
1.789
1.75
1.735
1.745
1.764
1.779
1.769
1.735
1.657
1.559
1.5
1.471
1.442
1.422
1.447
1.51
1.544
1.53
1.535
1.564
1.584
1.593
1.613
1.647
1.681
1.735
1.808
1.896
1.935
1.916
1.887
1.891
1.931
1.901
1.828
1.794
1.764
1.706
1.637
1.603
1.603
1.574
1.515
1.481
1.5
1.53
1.515
1.471
1.442
1.442
1.442
1.461
1.491
1.52
1.53
1.52
1.525
1.564
1.593
1.623
1.672
1.74
1.828
1.926
1.975
1.955
1.887
1.784
1.701
1.652
1.613
1.579
1.574
1.593
1.623
1.628
1.623
1.642
1.652
1.642
1.637
1.642
1.681
1.706
1.696
1.667
1.628
1.554
1.457
1.359
1.3
1.261
1.246
1.295
1.403
1.52
1.623
1.711
1.799
1.867
1.852
1.774
1.691
1.618
1.569
1.535
1.525
1.544
1.569
1.588
1.642
1.701
1.73
1.745
1.73
1.696
1.667
1.637
1.598
1.54
1.452
1.354
1.266
1.207
1.183
1.183
1.241
1.359
1.476
1.564
1.632
1.706
1.74
1.691
1.608
1.549
1.51
1.486
1.476
1.476
1.491
1.505
1.51
1.544
1.588
1.603
1.603
1.603
1.642
1.696
1.711
1.706
1.725
1.735
1.725
1.706
1.686
1.667
1.642
1.623
1.632
1.657
1.647
1.608
1.559
1.515
1.466
1.383
1.315
1.29
1.305
1.344
1.393
1.452
1.51
1.544
1.574
1.613
1.628
1.618
1.618
1.623
1.623
1.608
1.588
1.588
1.598
1.593
1.584
1.593
1.623
1.632
1.603
1.584
1.574
1.544
1.505
1.486
1.51
1.549
1.574
1.613
1.667
1.711
1.73
1.725
1.706
1.696
1.686
1.672
1.662
1.652
1.642
1.642
1.652
1.676
1.691
1.672
1.642
1.628
1.593
1.544
1.5
1.481
1.486
1.491
1.52
1.593
1.667
1.716
1.735
1.73
1.691
1.623
1.559
1.54
1.559
1.574
1.598
1.628
1.662
1.691
1.701
1.711
1.716
1.701
1.672
1.672
1.711
1.769
1.804
1.818
1.848
1.867
1.877
1.857
1.823
1.789
1.745
1.691
1.657
1.632
1.608
1.593
1.588
1.593
1.603
1.603
1.628
1.652
1.647
1.623
1.613
1.618
1.628
1.603
1.574
1.574
1.584
1.608
1.632
1.667
1.701
1.716
1.716
1.74
1.764
1.769
1.75
1.711
1.672
1.628
1.584
1.574
1.593
1.579
1.53
1.476
1.457
1.466
1.476
1.496
1.54
1.588
1.628
1.647
1.652
1.632
1.574
1.5
1.457
1.442
1.447
1.466
1.51
1.564
1.598
1.574
1.53
1.486
1.437
1.403
1.413
1.457
1.52
1.549
1.569
1.613
1.652
1.672
1.676
1.676
1.657
1.618
1.588
1.603
1.623
1.618
1.608
1.608
1.623
1.628
1.613
1.603
1.608
1.593
1.564
1.535
1.525
1.525
1.515
1.525
1.559
1.584
1.584
1.584
1.584
1.593
1.569
1.515
1.476
1.461
1.466
1.486
1.535
1.608
1.691
1.75
1.804
1.852
1.862
1.828
1.779
1.755
1.735
1.686
1.632
1.613
1.598
1.569
1.544
1.53
1.535
1.549
1.559
1.598
1.647
1.676
1.681
1.662
1.632
1.608
1.564
1.525
1.496
1.457
1.437
1.452
1.5
1.564
1.618
1.681
1.755
1.808
1.823
1.813
1.808
1.828
1.843
1.833
1.833
1.848
1.857
1.843
1.804
1.75
1.686
1.618
1.574
1.574
1.584
1.593
1.598
1.598
1.603
1.584
1.574
1.588
1.608
1.632
1.652
1.681
1.725
1.774
1.804
1.828
1.833
1.813
1.789
1.769
1.745
1.716
1.681
1.691
1.76
1.833
1.896
1.935
1.965
1.97
1.926
1.867
1.818
1.755
1.691
1.647
1.642
1.657
1.662
1.657
1.672
1.691
1.686
1.672
1.647
1.637
1.618
1.579
1.574
1.618
1.676
1.73
1.784
1.848
1.891
1.887
1.848
1.808
1.76
1.701
1.642
1.613
1.613
1.608
1.598
1.613
1.632
1.637
1.637
1.657
1.696
1.725
1.725
1.73
1.745
1.745
1.735
1.725
1.725
1.735
1.725
1.73
1.764
1.813
1.852
1.872
1.872
1.862
1.833
1.789
1.76
1.735
1.696
1.657
1.628
1.618
1.608
1.579
1.564
1.579
1.598
1.613
1.628
1.657
1.701
1.725
1.755
1.794
1.813
1.808
1.779
1.76
1.75
1.735
1.716
1.73
1.769
1.804
1.823
1.838
1.852
1.843
1.804
1.779
1.789
1.799
1.804
1.813
1.833
1.857
1.843
1.818
1.804
1.774
1.73
1.701
1.701
1.74
1.769
1.794
1.848
1.911
1.955
1.984
1.994
1.989
1.95
1.882
1.823
1.794
1.774
1.755
1.745
1.76
1.794
1.813
1.813
1.823
1.813
1.769
1.716
1.676
1.672
1.672
1.681
1.73
1.794
1.848
1.882
1.916
1.955
1.989
1.975
1.97
1.979
1.984
1.975
1.96
1.955
1.96
1.935
1.906
1.901
1.906
1.896
1.901
1.921
1.945
1.935
1.906
1.891
1.887
1.857
1.818
1.784
1.769
1.755
1.73
1.73
1.76
1.789
1.804
1.818
1.857
1.906
1.926
1.931
1.945
1.95
1.931
1.901
1.891
1.901
1.891
1.857
1.852
1.862
1.862
1.843
1.818
1.813
1.823
1.833
1.857
1.891
1.931
1.94
1.921
1.887
1.838
1.75
1.667
1.623
1.618
1.623
1.647
1.701
1.769
1.818
1.848
1.862
1.857
1.818
1.755
1.696
1.652
1.608
1.559
1.535
1.549
1.569
1.593
1.632
1.686
1.74
1.774
1.794
1.818
1.838
1.828
1.804
1.774
1.75
1.72
1.681
1.662
1.657
1.657
1.657
1.672
1.706
1.73
1.735
1.76
1.808
1.848
1.857
1.838
1.813
1.784
1.725
1.667
1.628
1.618
1.623
1.652
1.696
1.74
1.764
1.769
1.794
1.818
1.818
1.804
1.794
1.799
1.813
1.804
1.784
1.755
1.696
1.632
1.584
1.574
1.588
1.603
1.642
1.716
1.789
1.828
1.838
1.828
1.808
1.755
1.676
1.637
1.628
1.632
1.657
1.706
1.774
1.833
1.857
1.877
1.887
1.872
1.828
1.794
1.799
1.838
1.857
1.872
1.891
1.896
1.867
1.813
1.755
1.691
1.618
1.544
1.525
1.54
1.564
1.593
1.618
1.652
1.672
1.652
1.637
1.642
1.632
1.618
1.598
1.603
1.623
1.647
1.686
1.76
1.833
1.872
1.872
1.862
1.848
1.808
1.745
1.72
1.725
1.74
1.755
1.779
1.818
1.833
1.813
1.794
1.794
1.789
1.769
1.76
1.764
1.784
1.774
1.75
1.735
1.716
1.686
1.662
1.657
1.676
1.691
1.701
1.74
1.784
1.794
1.774
1.74
1.73
1.716
1.676
1.642
1.628
1.618
1.618
1.623
1.652
1.696
1.73
1.76
1.799
1.828
1.843
1.828
1.794
1.76
1.711
1.657
1.642
1.652
1.657
1.662
1.686
1.72
1.75
1.75
1.764
1.789
1.799
1.799
1.794
1.799
1.808
1.799
1.784
1.799
1.823
1.838
1.848
1.867
1.882
1.867
1.813
1.764
1.73
1.691
1.652
1.628
1.632
1.657
1.652
1.642
1.647
1.642
1.628
1.618
1.637
1.662
1.676
1.696
1.74
1.789
1.823
1.838
1.838
1.828
1.799
1.769
1.774
1.813
1.843
1.857
1.848
1.828
1.799
1.735
1.681
1.657
1.647
1.652
1.667
1.696
1.735
1.76
1.764
1.779
1.779
1.75
1.725
1.716
1.725
1.735
1.73
1.74
1.76
1.76
1.755
1.745
1.755
1.764
1.755
1.75
1.75
1.745
1.725
1.706
1.696
1.701
1.696
1.696
1.73
1.779
1.823
1.867
1.906
1.94
1.931
1.891
1.857
1.833
1.794
1.755
1.735
1.755
1.789
1.804
1.808
1.818
1.804
1.75
1.686
1.647
1.647
1.657
1.686
1.75
1.813
1.857
1.882
1.896
1.906
1.887
1.843
1.813
1.808
1.808
1.823
1.852
1.882
1.896
1.872
1.843
1.833
1.828
1.813
1.794
1.779
1.769
1.755
1.745
1.764
1.789
1.789
1.784
1.779
1.784
1.774
1.75
1.755
1.764
1.75
1.72
1.701
1.701
1.716
1.706
1.701
1.706
1.696
1.676
1.672
1.676
1.686
1.672
1.657
1.662
1.662
1.637
1.603
1.579
1.584
1.588
1.588
1.613
1.662
1.701
1.72
1.73
1.745
1.755
1.74
1.72
1.711
1.701
1.686
1.681
1.696
1.716
1.711
1.696
1.681
1.672
1.647
1.618
1.588
1.564
1.53
1.491
1.505
1.564
1.642
1.72
1.789
1.833
1.843
1.804
1.76
1.73
1.701
1.662
1.632
1.642
1.681
1.716
1.73
1.745
1.75
1.73
1.706
1.691
1.691
1.691
1.676
1.672
1.691
1.701
1.696
1.686
1.686
1.681
1.667
1.667
1.701
1.725
1.725
1.725
1.725
1.725
1.706
1.681
1.686
1.691
1.681
1.672
1.691
1.725
1.75
1.75
1.76
1.769
1.764
1.745
1.725
1.72
1.716
1.691
1.691
1.725
1.76
1.779
1.789
1.808
1.833
1.823
1.784
1.755
1.74
1.725
1.711
1.711
1.716
1.725
1.72
1.74
1.774
1.794
1.794
1.789
1.789
1.779
1.75
1.73
1.74
1.755
1.755
1.755
1.76
1.774
1.769
1.755
1.755
1.75
1.73
1.716
1.72
1.745
1.774
1.794
1.823
1.852
1.857
1.857
1.857
1.862
1.862
1.848
1.843
1.862
1.887
1.896
1.916
1.935
1.96
1.95
1.931
1.935
1.945
1.926
1.887
1.857
1.852
1.838
1.808
1.794
1.799
1.794
1.779
1.774
1.784
1.799
1.784
1.769
1.779
1.779
1.769
1.764
1.76
1.764
1.769
1.789
1.838
1.891
1.916
1.926
1.935
1.945
1.935
1.906
1.896
1.906
1.911
1.906
1.896
1.906
1.906
1.877
1.848
1.838
1.833
1.818
1.818
1.838
1.862
1.862
1.852
1.852
1.852
1.843
1.828
1.818
1.828
1.828
1.818
1.838
1.867
1.891
1.906
1.94
1.975
2.004
1.989
1.96
1.945
1.931
1.906
1.882
1.872
1.867
1.857
1.852
1.877
1.901
1.906
1.882
1.838
1.818
1.808
1.794
1.784
1.789
1.794
1.808
1.838
1.867
1.901
1.921
1.935
1.97
1.989
1.979
1.96
1.96
1.97
1.965
1.945
1.95
1.96
1.95
1.931
1.901
1.882
1.857
1.808
1.779
1.779
1.779
1.789
1.808
1.857
1.906
1.935
1.965
2.009
2.043
2.038
1.984
1.916
1.848
1.779
1.74
1.745
1.784
1.833
1.887
1.955
2.023
2.063
2.048
2.028
2.004
1.965
1.921
1.896
1.906
1.926
1.916
1.906
1.916
1.926
1.926
1.916
1.901
1.887
1.857
1.833
1.848
1.887
1.906
1.916
1.926
1.955
1.989
2.009
2.043
2.097
2.126
2.121
2.097
2.077
2.048
1.984
1.906
1.857
1.818
1.799
1.789
1.804
1.833
1.833
1.799
1.789
1.794
1.784
1.769
1.745
1.72
1.691
1.642
1.623
1.632
1.637
1.637
1.632
1.667
1.716
1.74
1.76
1.794
1.808
1.789
1.74
1.686
1.642
1.593
1.554
1.559
1.584
1.613
1.642
1.691
1.755
1.799
1.799
1.794
1.784
1.74
1.672
1.603
1.559
1.535
1.505
1.5
1.535
1.569
1.593
1.613
1.637
1.662
1.642
1.598
1.588
1.608
1.628
1.647
1.676
1.716
1.735
1.701
1.672
1.642
1.608
1.554
1.491
1.452
1.432
1.413
1.408
1.442
1.486
1.51
1.525
1.535
1.559
1.569
1.569
1.569
1.569
1.559
1.549
1.554
1.569
1.574
1.554
1.549
1.564
1.554
1.53
1.515
1.525
1.544
1.544
1.544
1.574
1.593
1.593
1.584
1.574
1.564
1.54
1.505
1.515
1.554
1.598
1.642
1.672
1.696
1.701
1.676
1.667
1.662
1.647
1.618
1.603
1.603
1.593
1.54
1.476
1.442
1.413
1.364
1.315
1.305
1.329
1.354
1.378
1.432
1.496
1.544
1.579
1.608
1.652
1.672
1.657
1.647
1.657
1.657
1.647
1.632
1.632
1.637
1.618
1.603
1.608
1.603
1.579
1.564
1.584
1.642
1.696
1.701
1.696
1.681
1.642
1.584
1.52
1.466
1.417
1.369
1.369
1.413
1.461
1.491
1.53
1.588
1.647
1.652
1.632
1.628
1.603
1.53
1.457
1.413
1.408
1.398
1.388
1.417
1.481
1.535
1.574
1.588
1.584
1.54
1.476
1.461
1.491
1.53
1.564
1.579
1.598
1.608
1.579
1.554
1.569
1.608
1.642
1.667
1.711
1.76
1.764
1.735
1.706
1.667
1.598
1.52
1.461
1.437
1.437
1.417
1.427
1.461
1.481
1.486
1.491
1.505
1.525
1.505
1.491
1.491
1.496
1.481
1.471
1.486
1.54
1.588
1.603
1.637
1.676
1.681
1.657
1.628
1.598
1.569
1.515
1.466
1.432
1.398
1.383
1.373
1.393
1.413
1.422
1.427
1.457
1.496
1.525
1.54
1.549
1.574
1.579
1.564
1.579
1.603
1.608
1.598
1.588
1.593
1.593
1.564
1.549
1.549
1.544
1.54
1.54
1.554
1.564
1.544
1.525
1.525
1.53
1.515
1.5
1.505
1.54
1.564
1.598
1.657
1.701
1.711
1.701
1.691
1.691
1.676
1.632
1.608
1.608
1.584
1.535
1.486
1.442
1.403
1.344
1.305
1.329
1.383
1.452
1.53
1.608
1.686
1.716
1.706
1.696
1.686
1.657
1.618
1.584
1.579
1.579
1.54
1.525
1.544
1.564
1.569
1.579
1.603
1.632
1.642
1.667
1.725
1.76
1.75
1.716
1.681
1.652
1.618
1.564
1.535
1.53
1.535
1.544
1.569
1.598
1.613
1.588
1.588
1.608
1.618
1.618
1.618
1.632
1.647
1.623
1.574
1.535
1.505
1.476
1.476
1.515
1.588
1.647
1.686
1.745
1.813
1.833
1.808
1.76
1.72
1.676
1.618
1.593
1.598
1.588
1.549
1.505
1.476
1.461
1.432
1.398
1.393
1.403
1.408
1.427
1.461
1.505
1.525
1.515
1.544
1.588
1.618
1.632
1.632
1.642
1.628
1.584
1.554
1.549
1.535
1.505
1.471
1.461
1.491
1.515
1.54
1.593
1.642
1.672
1.676
1.652
1.603
1.52
1.413
1.344
1.315
1.295
1.305
1.349
1.422
1.5
1.54
1.569
1.588
1.588
1.574
1.559
1.569
1.579
1.544
1.505
1.496
1.491
1.481
1.476
1.5
1.544
1.574
1.584
1.618
1.662
1.672
1.657
1.628
1.613
1.603
1.569
1.559
1.564
1.559
1.549
1.549
1.574
1.608
1.613
1.623
1.657
1.667
1.637
1.588
1.54
1.515
1.5
1.471
1.481
1.515
1.559
1.608
1.642
1.681
1.701
1.676
1.642
1.632
1.603
1.559
1.52
1.505
1.51
1.5
1.5
1.53
1.559
1.569
1.564
1.564
1.579
1.574
1.554
1.554
1.569
1.569
1.569
1.574
1.598
1.623
1.618
1.618
1.637
1.642
1.628
1.613
1.618
1.623
1.603
1.579
1.593
1.628
1.642
1.647
1.662
1.681
1.691
1.667
1.657
1.637
1.608
1.564
1.52
1.5
1.486
1.461
1.457
1.505
1.564
1.618
1.667
1.716
1.75
1.75
1.725
1.72
1.72
1.706
1.681
1.667
1.657
1.642
1.608
1.598
1.603
1.593
1.574
1.569
1.588
1.613
1.598
1.598
1.618
1.628
1.613
1.608
1.613
1.632
1.632
1.628
1.642
1.662
1.662
1.657
1.662
1.686
1.701
1.676
1.672
1.681
1.676
1.657
1.637
1.628
1.623
1.598
1.593
1.613
1.632
1.642
1.652
1.672
1.701
1.716
1.725
1.735
1.725
1.691
1.647
1.613
1.588
1.554
1.51
1.505
1.54
1.574
1.603
1.637
1.686
1.73
1.735
1.735
1.74
1.725
1.681
1.637
1.623
1.618
1.608
1.598
1.628
1.667
1.691
1.706
1.725
1.76
1.764
1.735
1.72
1.72
1.716
1.706
1.701
1.711
1.711
1.676
1.652
1.657
1.662
1.657
1.642
1.642
1.647
1.637
1.637
1.676
1.75
1.833
1.891
1.931
1.931
1.877
1.764
1.657
1.554
1.447
1.364
1.325
1.364
1.452
1.535
1.632
1.745
1.823
1.843
1.838
1.823
1.804
1.76
1.716
1.701
1.691
1.662
1.642
1.632
1.642
1.642
1.632
1.657
1.701
1.73
1.745
1.76
1.794
1.828
1.813
1.789
1.774
1.755
1.72
1.691
1.686
1.696
1.691
1.686
1.716
1.75
1.755
1.75
1.769
1.794
1.779
1.74
1.73
1.735
1.725
1.716
1.711
1.711
1.716
1.711
1.74
1.813
1.872
1.887
1.872
1.862
1.852
1.813
1.769
1.75
1.745
1.735
1.73
1.745
1.774
1.794
1.784
1.784
1.799
1.794
1.784
1.779
1.794
1.808
1.794
1.779
1.789
1.794
1.784
1.774
1.779
1.784
1.76
1.725
1.725
1.735
1.72
1.701
1.681
1.681
1.676
1.647
1.642
1.662
1.667
1.676
1.681
1.706
1.725
1.716
1.701
1.711
1.711
1.686
1.667
1.662
1.676
1.672
1.662
1.681
1.706
1.716
1.716
1.716
1.73
1.725
1.696
1.686
1.691
1.686
1.676
1.672
1.686
1.706
1.691
1.686
1.706
1.72
1.711
1.701
1.706
1.716
1.706
1.691
1.701
1.716
1.72
1.716
1.711
1.72
1.72
1.691
1.681
1.696
1.696
1.696
1.696
1.72
1.74
1.72
1.706
1.716
1.72
1.701
1.681
1.672
1.681
1.676
1.657
1.676
1.706
1.72
1.725
1.725
1.74
1.735
1.706
1.696
1.701
1.691
1.672
1.662
1.672
1.686
1.676
1.672
1.691
1.706
1.701
1.696
1.701
1.716
1.706
1.686
1.701
1.716
1.716
1.711
1.706
1.72
1.725
1.701
1.701
1.716
1.716
1.706
1.701
1.725
1.745
1.725
1.711
1.72
1.725
1.711
1.691
1.686
1.691
1.676
1.667
1.686
1.706
1.706
1.701
1.696
1.711
1.711
1.686
1.681
1.701
1.711
1.706
1.706
1.716
1.73
1.711
1.696
1.706
1.716
1.711
1.706
1.716
1.735
1.725
1.711
1.716
1.73
1.725
1.716
1.711
1.72
1.716
1.691
1.686
1.711
1.716
1.706
1.701
1.706
1.716
1.691
1.676
1.686
1.691
1.691
1.686
1.691
1.701
1.696
1.672
1.672
1.676
1.667
1.652
1.647
1.662
1.667
1.652
1.652
1.676
1.681
1.676
1.667
1.676
1.681
1.662
1.647
1.657
1.667
1.667
1.662
1.672
1.691
1.691
1.681
1.701
1.725
1.73
1.725
1.725
1.745
1.76
1.745
1.75
1.769
1.774
1.764
1.76
1.764
1.76
1.725
1.701
1.706
1.706
1.681
1.647
1.618
1.603
1.574
1.54
1.535
1.549
1.564
1.584
1.613
1.657
1.691
1.691
1.701
1.72
1.72
1.706
1.691
1.696
1.706
1.686
1.681
1.706
1.72
1.72
1.706
1.701
1.711
1.701
1.676
1.681
1.696
1.701
1.696
1.696
1.716
1.725
1.701
1.696
1.711
1.716
1.711
1.706
1.716
1.725
1.711
1.696
1.706
1.711
1.706
1.691
1.696
1.711
1.706
1.691
1.701
1.725
1.73
1.725
1.725
1.74
1.745
1.725
1.725
1.745
1.75
1.745
1.745
1.76
1.774
1.755
1.74
1.755
1.76
1.75
1.74
1.74
1.764
1.764
1.745
1.755
1.769
1.774
1.764
1.764
1.774
1.774
1.755
1.755
1.774
1.779
1.774
1.769
1.779
1.799
1.784
1.769
1.784
1.789
1.784
1.779
1.789
1.813
1.808
1.789
1.789
1.804
1.799
1.779
1.769
1.769
1.764
1.745
1.745
1.764
1.774
1.769
1.764
1.769
1.779
1.755
1.735
1.74
1.745
1.735
1.725
1.725
1.735
1.72
1.696
1.701
1.716
1.716
1.701
1.691
1.696
1.706
1.686
1.676
1.681
1.681
1.667
1.652
1.657
1.662
1.642
1.628
1.642
1.652
1.647
1.642
1.642
1.657
1.652
1.632
1.637
1.652
1.652
1.642
1.642
1.657
1.657
1.637
1.637
1.657
1.667
1.662
1.657
1.667
1.681
1.667
1.652
1.667
1.676
1.672
1.662
1.667
1.676
1.672
1.657
1.657
1.667
1.662
1.652
1.647
1.657
1.662
1.642
1.637
1.662
1.672
1.667
1.662
1.672
1.681
1.657
1.637
1.647
1.657
1.652
1.652
1.662
1.676
1.672
1.652
1.652
1.672
1.676
1.667
1.667
1.686
1.691
1.672
1.657
1.672
1.672
1.657
1.642
1.647
1.657
1.647
1.637
1.657
1.676
1.676
1.667
1.667
1.681
1.676
1.647
1.647
1.657
1.652
1.642
1.637
1.652
1.657
1.637
1.628
1.647
1.652
1.647
1.647
1.657
1.672
1.662
1.647
1.657
1.672
1.662
1.652
1.652
1.667
1.657
1.637
1.652
1.676
1.676
1.667
1.662
1.672
1.672
1.642
1.637
1.657
1.667
1.662
1.662
1.672
1.691
1.681
1.662
1.667
1.681
1.676
1.672
1.672
1.686
1.681
1.662
1.662
1.681
1.681
1.676
1.672
1.691
1.701
1.681
1.681
1.696
1.696
1.681
1.667
1.667
1.686
1.676
1.662
1.672
1.686
1.681
1.676
1.686
1.696
1.686
1.652
1.647
1.657
1.657
1.647
1.637
1.647
1.652
1.628
1.628
1.642
1.652
1.652
1.657
1.667
1.681
1.667
1.647
1.652
1.662
1.652
1.642
1.637
1.657
1.652
1.637
1.642
1.662
1.662
1.657
1.647
1.662
1.672
1.657
1.657
1.676
1.691
1.696
1.696
1.711
1.73
1.725
1.725
1.75
1.774
1.774
1.764
1.76
1.755
1.72
1.672
1.647
1.632
1.603
1.564
1.54
1.535
1.54
1.525
1.54
1.579
1.613
1.632
1.647
1.672
1.696
1.681
1.657
1.667
1.672
1.667
1.657
1.667
1.686
1.691
1.681
1.686
1.706
1.706
1.696
1.696
1.711
1.716
1.696
1.691
1.706
1.711
1.696
1.676
1.681
1.691
1.676
1.657
1.672
1.691
1.696
1.696
1.706
1.725
1.72
1.696
1.696
1.711
1.711
1.701
1.691
1.706
1.72
1.696
1.686
1.701
1.711
1.706
1.696
1.701
1.716
1.711
1.706
1.725
1.745
1.745
1.74
1.735
1.745
1.735
1.706
1.716
1.735
1.745
1.74
1.74
1.76
1.769
1.755
1.745
1.76
1.769
1.764
1.764
1.774
1.789
1.774
1.755
1.764
1.774
1.769
1.755
1.76
1.774
1.779
1.76
1.76
1.769
1.764
1.76
1.755
1.769
1.774
1.755
1.755
1.779
1.789
1.774
1.764
1.769
1.784
1.764
1.74
1.74
1.75
1.74
1.73
1.73
1.74
1.74
1.716
1.711
1.725
1.725
1.72
1.72
1.73
1.725
1.696
1.676
1.681
1.681
1.662
1.647
1.647
1.662
1.652
1.642
1.662
1.681
1.681
1.667
1.662
1.672
1.676
1.657
1.657
1.672
1.672
1.667
1.667
1.672
1.672
1.642
1.623
1.632
1.628
1.618
1.603
1.608
1.628
1.628
1.618
1.637
1.662
1.662
1.652
1.652
1.667
1.657
1.632
1.632
1.657
1.662
1.652
1.647
1.662
1.676
1.662
1.657
1.667
1.672
1.662
1.647
1.652
1.662
1.652
1.632
1.642
1.652
1.647
1.637
1.637
1.652
1.652
1.632
1.642
1.662
1.672
1.667
1.662
1.667
1.672
1.652
1.637
1.647
1.657
1.657
1.652
1.662
1.672
1.652
1.632
1.642
1.652
1.647
1.637
1.637
1.652
1.657
1.637
1.637
1.657
1.657
1.652
1.642
1.657
1.662
1.642
1.632
1.647
1.657
1.647
1.642
1.657
1.681
1.676
1.652
1.652
1.662
1.657
1.652
1.652
1.662
1.657
1.637
1.637
1.652
1.652
1.637
1.628
1.637
1.642
1.628
1.623
1.647
1.667
1.662
1.657
1.657
1.662
1.647
1.623
1.628
1.642
1.637
1.632
1.637
1.662
1.676
1.667
1.676
1.696
1.701
1.691
1.686
1.696
1.706
1.676
1.662
1.676
1.681
1.676
1.667
1.667
1.681
1.667
1.647
1.662
1.676
1.672
1.657
1.647
1.657
1.652
1.628
1.628
1.647
1.647
1.642
1.637
1.652
1.662
1.642
1.628
1.637
1.642
1.642
1.642
1.652
1.667
1.662
1.652
1.657
1.672
1.662
1.642
1.637
1.652
1.652
1.637
1.642
1.662
1.672
1.662
1.647
1.652
1.657
1.637
1.623
1.642
1.662
1.667
1.667
1.686
1.711
1.711
1.696
1.711
1.73
1.74
1.74
1.745
1.76
1.755
1.72
1.706
1.701
1.676
1.637
1.593
1.574
1.559
1.525
1.51
1.535
1.559
1.574
1.588
1.618
1.657
1.667
1.662
1.681
1.696
1.691
1.681
1.691
1.711
1.706
1.676
1.667
1.681
1.681
1.672
1.667
1.672
1.681
1.667
1.662
1.686
1.696
1.691
1.676
1.681
1.696
1.686
1.667
1.672
1.686
1.686
1.676
1.676
1.696
1.701
1.686
1.691
1.711
1.72
1.716
1.711
1.725
1.74
1.725
1.711
1.725
1.735
1.73
1.725
1.73
1.74
1.725
1.711
1.72
1.73
1.725
1.711
1.711
1.72
1.73
1.716
1.72
1.74
1.745
1.745
1.74
1.755
1.764
1.74
1.73
1.745
1.76
1.755
1.745
1.75
1.764
1.755
1.73
1.74
1.755
1.755
1.755
1.755
1.769
1.774
1.76
1.76
1.774
1.779
1.774
1.769
1.794
1.808
1.789
1.774
1.784
1.794
1.779
1.76
1.76
1.769
1.755
1.735
1.745
1.764
1.764
1.755
1.755
1.764
1.76
1.735
1.725
1.74
1.745
1.73
1.716
1.72
1.725
1.701
1.676
1.686
1.691
1.681
1.662
1.662
1.676
1.667
1.642
1.642
1.652
1.647
1.637
1.632
1.652
1.662
1.642
1.647
1.667
1.676
1.672
1.662
1.667
1.672
1.652
1.637
1.652
1.662
1.657
1.647
1.647
1.662
1.652
1.632
1.637
1.657
1.657
1.657
1.662
1.672
1.672
1.647
1.637
1.647
1.647
1.642
1.642
1.657
1.672
1.662
1.652
1.667
1.676
1.662
1.647
1.647
1.662
1.652
1.637
1.647
1.667
1.672
1.667
1.667
1.676
1.676
1.652
1.652
1.672
1.676
1.672
1.662
1.676
1.696
1.686
1.667
1.667
1.667
1.657
1.642
1.637
1.652
1.652
1.637
1.652
1.672
1.672
1.667
1.662
1.672
1.667
1.637
1.637
1.657
1.662
1.657
1.652
1.662
1.672
1.657
1.647
1.662
1.676
1.672
1.667
1.676
1.696
1.686
1.662
1.662
1.667
1.652
1.637
1.632
1.642
1.647
1.632
1.632
1.652
1.662
1.662
1.657
1.672
1.691
1.676
1.657
1.662
1.667
1.662
1.647
1.647
1.657
1.652
1.637
1.647
1.667
1.662
1.652
1.647
1.652
1.652
1.632
1.632
1.657
1.667
1.662
1.657
1.662
1.672
1.647
1.632
1.647
1.667
1.667
1.672
1.681
1.706
1.706
1.696
1.706
1.725
1.725
1.711
1.706
1.711
1.711
1.676
1.667
1.676
1.676
1.662
1.657
1.662
1.672
1.657
1.647
1.657
1.672
1.662
1.647
1.647
1.667
1.667
1.647
1.657
1.672
1.667
1.667
1.667
1.676
1.681
1.652
1.642
1.652
1.657
1.647
1.637
1.647
1.657
1.642
1.628
1.642
1.662
1.667
1.662
1.667
1.676
1.667
1.647
1.657
1.672
1.667
1.657
1.657
1.676
1.686
1.667
1.667
1.686
1.696
1.701
1.706
1.73
1.76
1.76
1.755
1.774
1.784
1.774
1.755
1.74
1.73
1.691
1.637
1.603
1.588
1.564
1.54
1.53
1.544
1.559
1.554
1.579
1.632
1.662
1.676
1.686
1.701
1.716
1.696
1.681
1.691
1.696
1.686
1.672
1.667
1.681
1.676
1.652
1.657
1.676
1.681
1.681
1.686
1.706
1.706
1.686
1.686
1.706
1.72
1.711
1.701
1.701
1.711
1.686
1.667
1.681
1.696
1.696
1.701
1.716
1.74
1.74
1.72
1.72
1.73
1.72
1.701
1.691
1.706
1.72
1.706
1.706
1.725
1.735
1.725
1.716
1.72
1.735
1.72
1.706
1.711
1.72
1.72
1.716
1.72
1.735
1.73
1.711
1.72
1.745
1.75
1.745
1.74
1.75
1.76
1.74
1.74
1.76
1.769
1.769
1.769
1.779
1.789
1.769
1.75
1.76
1.774
1.769
1.764
1.764
1.789
1.789
1.774
1.774
1.794
1.794
1.784
1.779
1.789
1.794
1.774
1.764
1.774
1.774
1.764
1.76
1.769
1.784
1.769
1.75
1.755
1.769
1.76
1.745
1.745
1.755
1.745
1.725
1.73
1.74
1.73
1.716
1.706
1.711
1.716
1.686
1.672
1.681
1.681
1.676
1.667
1.667
1.672
1.647
1.628
1.637
1.652
1.652
1.647
1.647
1.662
1.662
1.642
1.647
1.667
1.672
1.662
1.657
1.667
1.667
1.647
1.647
1.667
1.676
1.667
1.657
1.662
1.686
1.676
1.657
1.662
1.667
1.657
1.642
1.642
1.657
1.652
1.628
1.637
1.657
1.662
1.657
1.657
1.667
1.676
1.652
1.647
1.662
1.667
1.657
1.652
1.657
1.672
1.657
1.637
1.647
1.662
1.662
1.657
1.662
1.686
1.691
1.672
1.676
1.686
1.681
1.672
1.662
1.667
1.667
1.637
1.628
1.647
1.657
1.657
1.657
1.672
1.681
1.662
1.642
1.642
1.652
1.647
1.632
1.637
1.652
1.657
1.647
1.662
1.691
1.696
1.686
1.667
1.667
1.662
1.632
1.618
1.632
1.637
1.632
1.628
1.642
1.667
1.662
1.652
1.667
1.681
1.672
1.657
1.652
1.662
1.657
1.632
1.637
1.652
1.657
1.657
1.652
1.667
1.676
1.662
1.652
1.667
1.672
1.667
1.657
1.662
1.676
1.657
1.637
1.647
1.672
1.672
1.662
1.657
1.672
1.676
1.652
1.647
1.657
1.652
1.642
1.642
1.652
1.662
1.642
1.637
1.657
1.672
1.672
1.672
1.681
1.701
1.691
1.681
1.691
1.706
1.706
1.701
1.706
1.72
1.72
1.701
1.701
1.716
1.706
1.676
1.657
1.652
1.647
1.618
1.613
1.632
1.657
1.662
1.662
1.676
1.696
1.681
1.667
1.672
1.681
1.672
1.662
1.667
1.681
1.676
1.647
1.632
1.642
1.637
1.628
1.623
1.637
1.647
1.637
1.637
1.657
1.667
1.657
1.642
1.647
1.657
1.647
1.628
1.637
1.657
1.657
1.652
1.657
1.672
1.681
1.672
1.676
1.701
1.711
1.72
1.725
1.745
1.764
1.755
1.745
1.76
1.755
1.735
1.711
1.701
1.691
1.652
1.603
1.588
1.579
1.569
1.554
1.559
1.584
1.598
1.598
1.618
1.652
1.672
1.672
1.667
1.676
1.686
1.667
1.657
1.681
1.696
1.696
1.686
1.691
1.701
1.686
1.667
1.672
1.681
1.676
1.667
1.667
1.686
1.696
1.676
1.681
1.701
1.706
1.696
1.686
1.696
1.706
1.686
1.681
1.706
1.72
1.72
1.716
1.72
1.735
1.72
1.696
1.691
1.701
1.696
1.686
1.686
1.706
1.711
1.696
1.706
1.735
1.745
1.745
1.74
1.75
1.755
1.73
1.716
1.72
1.73
1.725
1.72
1.73
1.75
1.74
1.72
1.73
1.745
1.745
1.735
1.735
1.755
1.755
1.735
1.74
1.769
1.789
1.794
1.789
1.794
1.799
1.769
1.75
1.755
1.755
1.74
1.73
1.745
1.769
1.769
1.76
1.764
1.779
1.774
1.76
1.755
1.769
1.769
1.75
1.75
1.769
1.774
1.764
1.76
1.769
1.774
1.755
1.74
1.755
1.76
1.75
1.74
1.74
1.75
1.74
1.72
1.72
1.735
1.725
1.711
1.701
1.711
1.706
1.672
1.662
1.676
1.676
1.662
1.647
1.652
1.657
1.637
1.628
1.642
1.652
1.652
1.647
1.657
1.676
1.667
1.637
1.637
1.647
1.637
1.623
1.618
1.628
1.632
1.613
1.623
1.647
1.652
1.657
1.667
1.686
1.701
1.681
1.667
1.676
1.676
1.662
1.652
1.652
1.662
1.652
1.637
1.647
1.667
1.662
1.647
1.642
1.647
1.647
1.628
1.628
1.647
1.657
1.652
1.647
1.662
1.681
1.662
1.652
1.672
1.691
1.691
1.686
1.686
1.696
1.676
1.647
1.642
1.652
1.642
1.632
1.632
1.652
1.662
1.647
1.647
1.662
1.667
1.662
1.657
1.667
1.676
1.657
1.642
1.657
1.662
1.652
1.642
1.647
1.662
1.657
1.642
1.657
1.672
1.667
1.652
1.642
1.652
1.652
1.628
1.628
1.647
1.657
1.657
1.657
1.676
1.691
1.676
1.657
1.662
1.667
1.652
1.642
1.637
1.647
1.628
1.608
1.632
1.667
1.676
1.672
1.672
1.676
1.676
1.642
1.632
1.642
1.642
1.632
1.632
1.647
1.667
1.662
1.652
1.667
1.676
1.672
1.657
1.662
1.672
1.662
1.642
1.647
1.662
1.662
1.652
1.652
1.667
1.676
1.652
1.647
1.662
1.667
1.652
1.647
1.652
1.667
1.652
1.647
1.667
1.676
1.672
1.667
1.662
1.676
1.662
1.637
1.642
1.662
1.667
1.662
1.672
1.696
1.706
1.686
1.686
1.701
1.706
1.696
1.686
1.696
1.706
1.691
1.676
1.696
1.706
1.696
1.686
1.681
1.691
1.681
1.652
1.652
1.662
1.662
1.657
1.662
1.681
1.691
1.672
1.667
1.686
1.686
1.672
1.652
1.652
1.662
1.662
1.667
1.686
1.701
1.696
1.691
1.691
1.701
1.676
1.642
1.632
1.637
1.632
1.623
1.623
1.637
1.642
1.623
1.628
1.647
1.657
1.657
1.657
1.667
1.681
1.667
1.657
1.672
1.686
1.686
1.681
1.696
1.72
1.725
1.72
1.74
1.774
1.784
1.779
1.774
1.769
1.75
1.696
1.667
1.662
1.637
1.603
1.574
1.574
1.588
1.579
1.574
1.593
1.618
1.628
1.642
1.662
1.691
1.686
1.667
1.672
1.681
1.672
1.657
1.647
1.662
1.672
1.657
1.662
1.681
1.696
1.696
1.691
1.706
1.72
1.711
1.696
1.711
1.72
1.716
1.706
1.706
1.72
1.711
1.696
1.701
1.72
1.725
1.72
1.72
1.735
1.735
1.706
1.691
1.701
1.716
1.711
1.701
1.711
1.72
1.706
1.691
1.696
1.701
1.691
1.681
1.686
1.706
1.711
1.696
1.706
1.725
1.73
1.725
1.73
1.75
1.755
1.735
1.73
1.745
1.745
1.735
1.725
1.735
1.75
1.735
1.725
1.745
1.769
1.769
1.755
1.755
1.769
1.769
1.755
1.76
1.774
1.769
1.755
1.75
1.769
1.779
1.769
1.774
1.794
1.804
1.789
1.774
1.774
1.774
1.75
1.72
1.725
1.735
1.735
1.735
1.745
1.769
1.774
1.755
1.76
1.774
1.769
1.755
1.75
1.76
1.76
1.735
1.725
1.74
1.745
1.725
1.711
1.711
1.716
1.691
1.672
1.681
1.691
1.686
1.672
1.667
1.676
1.672
1.647
1.647
1.662
1.662
1.662
1.667
1.686
1.691
1.667
1.652
1.662
1.657
1.642
1.628
1.623
1.632
1.618
1.603
1.623
1.647
1.647
1.642
1.647
1.662
1.662
1.642
1.647
1.662
1.662
1.662
1.662
1.676
1.686
1.667
1.662
1.676
1.681
1.672
1.667
1.676
1.686
1.667
1.647
1.657
1.672
1.662
1.657
1.657
1.676
1.667
1.637
1.637
1.657
1.652
1.642
1.637
1.652
1.667
1.652
1.647
1.667
1.672
1.662
1.657
1.662
1.672
1.657
1.642
1.652
1.667
1.667
1.657
1.657
1.667
1.662
1.647
1.652
1.672
1.672
1.662
1.657
1.667
1.676
1.657
1.652
1.672
1.686
1.681
1.676
1.686
1.701
1.686
1.667
1.676
1.686
1.681
1.667
1.662
1.672
1.662
1.637
1.637
1.657
1.662
1.657
1.657
1.676
1.686
1.667
1.662
1.676
1.686
1.676
1.672
1.676
1.686
1.676
1.657
1.667
1.681
1.676
1.667
1.667
1.681
1.681
1.657
1.667
1.686
1.686
1.681
1.676
1.686
1.686
1.662
1.652
1.672
1.676
1.667
1.662
1.672
1.691
1.676
1.662
1.667
1.676
1.672
1.667
1.667
1.681
1.681
1.657
1.662
1.681
1.681
1.676
1.676
1.691
1.701
1.681
1.672
1.691
1.701
1.701
1.691
1.706
1.72
1.716
1.701
1.711
1.725
1.72
1.711
1.711
1.72
1.716
1.691
1.691
1.701
1.696
1.676
1.667
1.672
1.676
1.652
1.647
1.672
1.691
1.691
1.686
1.691
1.706
1.686
1.662
1.657
1.662
1.647
1.628
1.628
1.642
1.647
1.628
1.637
1.657
1.662
1.657
1.662
1.676
1.691
1.672
1.667
1.681
1.686
1.676
1.667
1.662
1.672
1.657
1.642
1.662
1.681
1.686
1.686
1.686
1.701
1.696
1.667
1.662
1.676
1.681
1.686
1.696
1.73
1.769
1.774
1.779
1.794
1.789
1.76
1.72
1.691
1.667
1.608
1.559
1.549
1.554
1.554
1.554
1.574
1.608
1.628
1.623
1.642
1.681
1.696
1.696
1.691
1.701
1.706
1.686
1.676
1.696
1.711
1.701
1.696
1.706
1.72
1.711
1.696
1.716
1.74
1.74
1.73
1.725
1.735
1.73
1.696
1.676
1.681
1.676
1.662
1.652
1.657
1.667
1.652
1.652
1.676
1.696
1.701
1.701
1.72
1.755
1.755
1.745
1.75
1.755
1.735
1.701
1.672
1.662
1.642
1.603
1.593
1.603
1.603
1.598
1.598
1.608
1.618
1.603
1.618
1.686
1.755
1.789
1.823
1.872
1.916
1.901
1.857
1.823
1.794
1.755
1.72
1.706
1.725
1.74
1.735
1.755
1.799
1.808
1.799
1.779
1.774
1.769
1.73
1.711
1.72
1.735
1.735
1.735
1.755
1.779
1.779
1.774
1.789
1.808
1.804
1.794
1.804
1.828
1.833
1.799
1.784
1.784
1.769
1.745
1.72
1.716
1.716
1.686
1.681
1.706
1.73
1.735
1.73
1.73
1.74
1.72
1.701
1.706
1.716
1.701
1.676
1.662
1.676
1.681
1.662
1.662
1.676
1.676
1.672
1.672
1.691
1.701
1.672
1.652
1.662
1.667
1.657
1.647
1.657
1.672
1.667
1.657
1.667
1.681
1.672
1.657
1.652
1.662
1.657
1.632
1.632
1.652
1.662
1.652
1.632
1.628
1.618
1.584
1.564
1.574
1.593
1.603
1.613
1.637
1.667
1.672
1.662
1.676
1.686
1.672
1.647
1.632
1.632
1.628
1.598
1.598
1.623
1.642
1.647
1.647
1.662
1.681
1.667
1.647
1.652
1.647
1.628
1.613
1.613
1.632
1.628
1.618
1.632
1.652
1.657
1.657
1.657
1.672
1.662
1.632
1.623
1.628
1.623
1.613
1.608
1.623
1.642
1.637
1.642
1.667
1.686
1.676
1.657
1.657
1.662
1.647
1.628
1.628
1.642
1.642
1.642
1.642
1.662
1.662
1.637
1.637
1.657
1.657
1.637
1.628
1.637
1.647
1.628
1.618
1.632
1.647
1.647
1.647
1.662
1.691
1.691
1.662
1.652
1.652
1.642
1.628
1.623
1.642
1.647
1.632
1.642
1.662
1.667
1.652
1.642
1.642
1.642
1.628
1.618
1.642
1.662
1.667
1.667
1.676
1.686
1.667
1.642
1.647
1.662
1.657
1.647
1.642
1.657
1.662
1.642
1.637
1.657
1.667
1.657
1.642
1.647
1.647
1.628
1.618
1.628
1.642
1.642
1.642
1.657
1.686
1.681
1.662
1.672
1.681
1.676
1.667
1.667
1.676
1.681
1.652
1.652
1.667
1.672
1.667
1.667
1.681
1.701
1.691
1.686
1.706
1.711
1.696
1.676
1.667
1.667
1.647
1.623
1.628
1.642
1.642
1.632
1.637
1.657
1.672
1.652
1.657
1.672
1.672
1.657
1.642
1.642
1.647
1.623
1.603
1.623
1.642
1.647
1.647
1.647
1.662
1.657
1.637
1.642
1.652
1.647
1.637
1.637
1.647
1.652
1.623
1.613
1.628
1.632
1.628
1.623
1.637
1.657
1.642
1.642
1.662
1.681
1.681
1.676
1.691
1.72
1.73
1.725
1.745
1.779
1.789
1.789
1.784
1.784
1.76
1.711
1.676
1.672
1.652
1.618
1.584
1.569
1.559
1.535
1.525
1.544
1.574
1.584
1.593
1.628
1.681
1.701
1.691
1.691
1.691
1.672
1.652
1.642
1.647
1.647
1.628
1.632
1.662
1.681
1.676
1.676
1.686
1.696
1.676
1.662
1.676
1.691
1.686
1.676
1.686
1.701
1.696
1.672
1.676
1.691
1.696
1.691
1.701
1.725
1.735
1.716
1.711
1.73
1.725
1.711
1.696
1.696
1.701
1.676
1.662
1.672
1.691
1.696
1.696
1.711
1.735
1.73
1.716
1.725
1.74
1.74
1.73
1.725
1.74
1.745
1.72
1.716
1.735
1.74
1.74
1.735
1.75
1.764
1.75
1.74
1.76
1.774
1.774
1.769
1.769
1.784
1.774
1.755
1.76
1.779
1.784
1.774
1.769
1.779
1.784
1.764
1.76
1.774
1.779
1.774
1.769
1.784
1.808
1.794
1.774
1.784
1.784
1.769
1.755
1.755
1.764
1.76
1.74
1.75
1.769
1.764
1.755
1.745
1.755
1.755
1.73
1.725
1.74
1.745
1.74
1.73
1.74
1.75
1.73
1.711
1.72
1.73
1.716
1.701
1.691
1.696
1.686
1.657
1.657
1.667
1.667
1.662
1.662
1.672
1.681
1.662
1.657
1.672
1.672
1.657
1.642
1.642
1.652
1.628
1.613
1.628
1.647
1.647
1.642
1.652
1.667
1.662
1.637
1.642
1.657
1.657
1.647
1.652
1.672
1.681
1.667
1.667
1.686
1.691
1.686
1.676
1.681
1.696
1.686
1.672
1.681
1.696
1.691
1.681
1.672
1.681
1.672
1.647
1.652
1.672
1.676
1.667
1.667
1.686
1.696
1.676
1.672
1.686
1.681
1.662
1.642
1.642
1.652
1.637
1.628
1.647
1.672
1.681
1.681
1.681
1.696
1.691
1.667
1.672
1.686
1.686
1.681
1.672
1.686
1.686
1.662
1.657
1.672
1.686
1.686
1.681
1.691
1.701
1.686
1.672
1.681
1.696
1.686
1.672
1.676
1.691
1.691
1.667
1.667
1.676
1.672
1.657
1.652
1.667
1.681
1.667
1.667
1.686
1.696
1.691
1.686
1.686
1.691
1.667
1.642
1.652
1.672
1.672
1.672
1.681
1.696
1.691
1.662
1.657
1.667
1.657
1.642
1.647
1.667
1.681
1.667
1.667
1.686
1.691
1.681
1.672
1.676
1.681
1.667
1.657
1.672
1.696
1.701
1.701
1.706
1.725
1.725
1.711
1.711
1.725
1.72
1.711
1.706
1.716
1.72
1.696
1.686
1.701
1.706
1.691
1.676
1.676
1.681
1.662
1.647
1.652
1.657
1.652
1.642
1.642
1.652
1.657
1.642
1.652
1.676
1.686
1.686
1.686
1.691
1.696
1.672
1.657
1.667
1.676
1.676
1.672
1.681
1.696
1.686
1.672
1.676
1.681
1.662
1.642
1.647
1.662
1.667
1.657
1.672
1.696
1.696
1.691
1.686
1.696
1.701
1.676
1.672
1.696
1.711
1.72
1.73
1.755
1.789
1.794
1.789
1.804
1.808
1.784
1.75
1.716
1.686
1.642
1.584
1.559
1.554
1.54
1.53
1.535
1.564
1.593
1.603
1.623
1.667
1.696
1.711
1.72
1.73
1.745
1.725
1.711
1.72
1.725
1.72
1.711
1.711
1.716
1.701
1.672
1.672
1.696
1.706
1.706
1.716
1.735
1.74
1.711
1.696
1.701
1.701
1.691
1.686
1.701
1.73
1.725
1.716
1.725
1.735
1.72
1.701
1.691
1.701
1.701
1.691
1.711
1.74
1.75
1.745
1.74
1.75
1.755
1.73
1.716
1.73
1.745
1.74
1.735
1.745
1.76
1.745
1.72
1.73
1.74
1.735
1.725
1.735
1.76
1.769
1.764
1.774
1.789
1.789
1.789
1.794
1.808
1.813
1.789
1.769
1.789
1.799
1.794
1.784
1.789
1.804
1.789
1.774
1.794
1.813
1.818
1.804
1.799
1.804
1.799
1.774
1.779
1.794
1.799
1.794
1.789
1.804
1.818
1.804
1.799
1.813
1.818
1.804
1.784
1.784
1.789
1.774
1.75
1.76
1.779
1.779
1.769
1.769
1.784
1.779
1.745
1.73
1.735
1.72
1.706
1.691
1.696
1.706
1.681
1.676
1.691
1.696
1.691
1.681
1.691
1.706
1.696
1.676
1.681
1.696
1.691
1.676
1.672
1.676
1.676
1.662
1.672
1.691
1.691
1.681
1.672
1.676
1.676
1.647
1.628
1.642
1.652
1.652
1.652
1.662
1.676
1.667
1.652
1.662
1.667
1.662
1.652
1.652
1.672
1.672
1.652
1.657
1.676
1.676
1.676
1.672
1.686
1.696
1.676
1.672
1.686
1.706
1.706
1.701
1.711
1.716
1.691
1.667
1.667
1.672
1.662
1.647
1.647
1.662
1.667
1.647
1.657
1.672
1.676
1.662
1.657
1.667
1.681
1.657
1.647
1.662
1.672
1.667
1.662
1.667
1.696
1.696
1.686
1.696
1.706
1.696
1.676
1.662
1.662
1.647
1.618
1.618
1.647
1.662
1.672
1.672
1.686
1.691
1.667
1.647
1.657
1.657
1.642
1.632
1.637
1.657
1.652
1.642
1.662
1.681
1.681
1.672
1.667
1.681
1.676
1.647
1.647
1.662
1.662
1.657
1.657
1.667
1.676
1.657
1.647
1.667
1.681
1.681
1.676
1.686
1.706
1.691
1.672
1.676
1.691
1.686
1.681
1.681
1.701
1.706
1.681
1.691
1.716
1.725
1.72
1.711
1.72
1.725
1.701
1.681
1.691
1.691
1.681
1.672
1.681
1.706
1.701
1.686
1.696
1.706
1.701
1.686
1.681
1.691
1.691
1.667
1.667
1.686
1.691
1.686
1.676
1.686
1.696
1.676
1.662
1.676
1.686
1.681
1.672
1.681
1.696
1.686
1.672
1.681
1.691
1.691
1.681
1.676
1.691
1.691
1.672
1.676
1.696
1.696
1.686
1.676
1.691
1.701
1.676
1.657
1.667
1.672
1.672
1.662
1.667
1.686
1.681
1.676
1.696
1.725
1.745
1.755
1.769
1.794
1.808
1.789
1.789
1.799
1.789
1.76
1.73
1.711
1.686
1.628
1.579
1.564
1.554
1.54
1.535
1.549
1.584
1.603
1.613
1.647
1.686
1.691
1.696
1.701
1.72
1.73
1.706
1.711
1.735
1.74
1.73
1.711
1.711
1.711
1.686
1.672
1.681
1.686
1.676
1.667
1.672
1.691
1.681
1.667
1.681
1.701
1.701
1.701
1.701
1.72
1.725
1.706
1.711
1.725
1.725
1.716
1.706
1.711
1.72
1.706
1.691
1.706
1.725
1.725
1.725
1.735
1.75
1.74
1.716
1.711
1.72
1.716
1.706
1.706
1.72
1.73
1.716
1.72
1.74
1.745
1.74
1.74
1.75
1.76
1.74
1.74
1.76
1.774
1.769
1.76
1.755
1.764
1.745
1.72
1.735
1.764
1.779
1.774
1.779
1.794
1.799
1.774
1.769
1.774
1.769
1.755
1.755
1.769
1.789
1.779
1.774
1.789
1.799
1.794
1.779
1.779
1.789
1.774
1.75
1.75
1.76
1.755
1.74
1.735
1.75
1.755
1.735
1.73
1.755
1.769
1.769
1.764
1.769
1.774
1.745
1.716
1.716
1.711
1.696
1.672
1.672
1.686
1.676
1.652
1.657
1.667
1.667
1.662
1.662
1.667
1.672
1.647
1.652
1.672
1.676
1.667
1.652
1.652
1.657
1.637
1.618
1.628
1.642
1.642
1.642
1.647
1.667
1.657
1.632
1.632
1.637
1.628
1.613
1.613
1.632
1.642
1.628
1.637
1.657
1.667
1.652
1.642
1.647
1.662
1.647
1.632
1.652
1.667
1.667
1.662
1.672
1.691
1.676
1.652
1.647
1.652
1.642
1.632
1.628
1.642
1.652
1.632
1.637
1.657
1.662
1.652
1.642
1.652
1.667
1.652
1.647
1.662
1.676
1.672
1.662
1.667
1.676
1.672
1.652
1.657
1.672
1.676
1.672
1.676
1.686
1.681
1.652
1.642
1.657
1.652
1.637
1.628
1.637
1.647
1.637
1.628
1.647
1.667
1.667
1.657
1.657
1.672
1.657
1.632
1.637
1.652
1.652
1.647
1.652
1.667
1.672
1.652
1.647
1.662
1.662
1.652
1.647
1.662
1.681
1.672
1.667
1.686
1.701
1.701
1.696
1.701
1.716
1.711
1.696
1.706
1.725
1.716
1.701
1.681
1.676
1.662
1.628
1.618
1.628
1.637
1.637
1.642
1.662
1.676
1.657
1.637
1.642
1.647
1.637
1.628
1.632
1.647
1.647
1.632
1.637
1.652
1.652
1.642
1.637
1.647
1.657
1.637
1.637
1.652
1.657
1.652
1.642
1.652
1.667
1.647
1.637
1.647
1.657
1.652
1.642
1.647
1.672
1.676
1.662
1.676
1.701
1.706
1.701
1.701
1.716
1.72
1.706
1.701
1.72
1.725
1.72
1.706
1.706
1.706
1.676
1.642
1.632
1.618
1.579
1.544
1.52
1.515
1.505
1.486
1.51
1.549
1.584
1.618
1.642
1.681
1.696
1.676
1.672
1.686
1.691
1.681
1.676
1.686
1.701
1.691
1.681
1.696
1.711
1.701
1.686
1.681
1.686
1.681
1.662
1.672
1.696
1.696
1.691
1.696
1.711
1.706
1.681
1.667
1.681
1.681
1.681
1.681
1.696
1.716
1.701
1.691
1.701
1.711
1.701
1.686
1.686
1.701
1.696
1.676
1.686
1.706
1.711
1.706
1.706
1.725
1.74
1.72
1.72
1.735
1.745
1.745
1.745
1.755
1.764
1.75
1.735
1.74
1.745
1.735
1.725
1.73
1.755
1.755
1.735
1.745
1.764
1.764
1.755
1.75
1.76
1.769
1.755
1.755
1.769
1.784
1.779
1.769
1.769
1.774
1.755
1.74
1.755
1.774
1.779
1.779
1.784
1.804
1.799
1.774
1.769
1.784
1.784
1.769
1.76
1.764
1.764
1.74
1.735
1.745
1.745
1.735
1.72
1.725
1.74
1.725
1.706
1.711
1.716
1.706
1.691
1.686
1.696
1.691
1.667
1.676
1.691
1.696
1.686
1.681
1.691
1.691
1.662
1.642
1.652
1.652
1.647
1.642
1.652
1.662
1.652
1.637
1.647
1.657
1.652
1.642
1.637
1.647
1.642
1.618
1.623
1.642
1.652
1.647
1.642
1.662
1.672
1.652
1.647
1.667
1.676
1.667
1.657
1.662
1.672
1.662
1.637
1.637
1.642
1.632
1.623
1.632
1.652
1.657
1.642
1.652
1.676
1.681
1.667
1.657
1.667
1.672
1.652
1.647
1.667
1.681
1.681
1.676
1.676
1.681
1.652
1.628
1.632
1.637
1.628
1.618
1.628
1.647
1.657
1.642
1.652
1.672
1.672
1.662
1.657
1.667
1.672
1.657
1.657
1.672
1.676
1.662
1.652
1.657
1.667
1.647
1.637
1.647
1.662
1.662
1.662
1.657
1.676
1.672
1.642
1.647
1.657
1.657
1.652
1.652
1.667
1.686
1.672
1.672
1.696
1.701
1.681
1.662
1.657
1.657
1.632
1.608
1.618
1.637
1.642
1.642
1.652
1.672
1.667
1.647
1.647
1.662
1.662
1.662
1.667
1.686
1.696
1.681
1.676
1.691
1.696
1.686
1.672
1.676
1.686
1.676
1.657
1.667
1.681
1.676
1.672
1.672
1.686
1.686
1.662
1.662
1.676
1.672
1.657
1.647
1.657
1.667
1.652
1.647
1.667
1.676
1.667
1.657
1.657
1.662
1.642
1.618
1.623
1.637
1.642
1.647
1.657
1.676
1.676
1.657
1.667
1.686
1.691
1.676
1.662
1.672
1.676
1.652
1.637
1.647
1.652
1.642
1.632
1.642
1.662
1.647
1.632
1.647
1.667
1.672
1.667
1.672
1.696
1.706
1.691
1.696
1.716
1.725
1.725
1.73
1.75
1.769
1.75
1.74
1.75
1.74
1.716
1.681
1.662
1.642
1.603
1.559
1.549
1.554
1.554
1.559
1.574
1.613
1.637
1.637
1.657
1.691
1.701
1.691
1.676
1.676
1.676
1.652
1.647
1.672
1.686
1.686
1.686
1.696
1.711
1.696
1.676
1.676
1.686
1.676
1.667
1.672
1.686
1.691
1.672
1.672
1.691
1.701
1.701
1.696
1.706
1.711
1.686
1.681
1.696
1.706
1.696
1.686
1.691
1.706
1.696
1.681
1.686
1.696
1.691
1.691
1.701
1.725
1.73
1.711
1.716
1.73
1.735
1.72
1.711
1.716
1.725
1.706
1.701
1.725
1.745
1.745
1.745
1.755
1.774
1.76
1.735
1.74
1.755
1.745
1.735
1.73
1.745
1.745
1.725
1.735
1.764
1.769
1.764
1.755
1.764
1.774
1.755
1.75
1.774
1.789
1.784
1.779
1.784
1.799
1.784
1.76
1.76
1.769
1.764
1.75
1.755
1.769
1.774
1.75
1.745
1.76
1.76
1.75
1.75
1.755
1.764
1.735
1.725
1.735
1.745
1.735
1.725
1.725
1.735
1.725
1.711
1.72
1.725
1.716
1.701
1.691
1.701
1.696
1.667
1.662
1.672
1.662
1.652
1.642
1.652
1.657
1.637
1.628
1.642
1.652
1.647
1.642
1.652
1.667
1.657
1.647
1.657
1.672
1.667
1.657
1.657
1.667
1.662
1.632
1.628
1.642
1.647
1.637
1.632
1.637
1.652
1.637
1.632
1.647
1.662
1.657
1.647
1.652
1.667
1.657
1.637
1.642
1.657
1.662
1.662
1.667
1.681
1.681
1.657
1.652
1.667
1.667
1.657
1.652
1.662
1.672
1.657
1.647
1.662
1.672
1.662
1.652
1.657
1.672
1.662
1.652
1.672
1.686
1.681
1.672
1.662
1.667
1.657
1.628
1.628
1.642
1.652
1.652
1.657
1.672
1.686
1.672
1.662
1.676
1.676
1.667
1.652
1.652
1.667
1.652
1.632
1.642
1.662
1.662
1.662
1.667
1.686
1.691
1.667
1.662
1.667
1.662
1.647
1.637
1.642
1.647
1.628
1.618
1.642
1.662
1.667
1.667
1.676
1.691
1.681
1.662
1.662
1.672
1.667
1.652
1.647
1.662
1.672
1.652
1.657
1.676
1.681
1.681
1.681
1.691
1.711
1.696
1.691
1.706
1.716
1.711
1.701
1.706
1.716
1.701
1.667
1.667
1.672
1.662
1.642
1.632
1.637
1.642
1.623
1.632
1.662
1.672
1.667
1.662
1.676
1.681
1.662
1.642
1.657
1.662
1.652
1.642
1.652
1.672
1.662
1.642
1.652
1.672
1.672
1.662
1.662
1.672
1.667
1.632
1.623
1.628
1.628
1.623
1.628
1.647
1.672
1.667
1.662
1.676
1.691
1.681
1.667
1.667
1.681
1.676
1.672
1.696
1.725
1.735
1.745
1.755
1.779
1.784
1.76
1.75
1.75
1.73
1.696
1.667
1.647
1.637
1.593
1.569
1.569
1.574
1.564
1.554
1.564
1.588
1.598
1.603
1.637
1.681
1.701
1.701
1.701
1.706
1.706
1.676
1.667
1.676
1.681
1.672
1.672
1.686
1.706
1.696
1.691
1.706
1.716
1.711
1.701
1.696
1.706
1.686
1.662
1.667
1.691
1.696
1.696
1.706
1.73
1.73
1.701
1.691
1.696
1.691
1.676
1.662
1.672
1.691
1.686
1.686
1.716
1.73
1.73
1.73
1.735
1.745
1.73
1.701
1.706
1.72
1.72
1.716
1.716
1.735
1.74
1.72
1.72
1.74
1.745
1.74
1.73
1.745
1.76
1.74
1.735
1.76
1.779
1.779
1.774
1.779
1.794
1.784
1.76
1.769
1.789
1.784
1.779
1.769
1.774
1.774
1.75
1.74
1.755
1.76
1.755
1.755
1.774
1.794
1.784
1.769
1.779
1.784
1.774
1.76
1.764
1.779
1.774
1.76
1.769
1.789
1.784
1.774
1.774
1.779
1.774
1.745
1.735
1.745
1.745
1.725
1.716
1.725
1.735
1.716
1.696
1.701
1.706
1.701
1.686
1.681
1.691
1.681
1.657
1.657
1.667
1.662
1.647
1.642
1.657
1.657
1.642
1.652
1.676
1.686
1.676
1.662
1.662
1.667
1.637
1.618
1.628
1.632
1.632
1.628
1.637
1.652
1.657
1.642
1.652
1.667
1.672
1.657
1.652
1.657
1.657
1.628
1.618
1.628
1.632
1.632
1.632
1.647
1.667
1.657
1.652
1.667
1.672
1.657
1.642
1.642
1.652
1.642
1.618
1.628
1.652
1.662
1.662
1.662
1.681
1.686
1.662
1.647
1.657
1.657
1.652
1.647
1.657
1.672
1.657
1.652
1.667
1.672
1.662
1.647
1.647
1.657
1.647
1.628
1.632
1.647
1.647
1.642
1.642
1.657
1.667
1.647
1.652
1.672
1.676
1.667
1.652
1.657
1.667
1.647
1.628
1.642
1.657
1.662
1.657
1.667
1.686
1.676
1.652
1.647
1.657
1.647
1.637
1.632
1.647
1.657
1.642
1.637
1.657
1.662
1.652
1.647
1.657
1.672
1.657
1.642
1.652
1.667
1.662
1.652
1.647
1.662
1.657
1.637
1.642
1.662
1.672
1.672
1.672
1.681
1.681
1.657
1.652
1.667
1.667
1.657
1.652
1.667
1.686
1.676
1.672
1.691
1.706
1.706
1.701
1.701
1.706
1.691
1.662
1.667
1.681
1.672
1.652
1.637
1.647
1.652
1.628
1.623
1.642
1.652
1.652
1.652
1.672
1.691
1.676
1.662
1.667
1.676
1.667
1.647
1.642
1.657
1.652
1.632
1.637
1.652
1.657
1.652
1.652
1.667
1.672
1.647
1.642
1.657
1.662
1.652
1.642
1.647
1.662
1.647
1.632
1.647
1.667
1.667
1.662
1.662
1.681
1.681
1.662
1.672
1.696
1.711
1.716
1.73
1.755
1.774
1.76
1.755
1.764
1.764
1.74
1.711
1.691
1.676
1.632
1.588
1.569
1.559
1.544
1.525
1.53
1.559
1.574
1.584
1.613
1.657
1.676
1.676
1.681
1.696
1.701
1.681
1.672
1.686
1.691
1.681
1.681
1.691
1.701
1.686
1.672
1.686
1.696
1.691
1.681
1.681
1.691
1.686
1.667
1.672
1.691
1.696
1.691
1.691
1.706
1.716
1.701
1.701
1.725
1.73
1.72
1.716
1.725
1.73
1.711
1.691
1.696
1.706
1.706
1.696
1.701
1.72
1.72
1.711
1.716
1.73
1.73
1.72
1.716
1.73
1.735
1.711
1.701
1.72
1.73
1.725
1.72
1.735
1.755
1.745
1.73
1.745
1.76
1.755
1.755
1.755
1.769
1.764
1.745
1.75
1.769
1.779
1.774
1.769
1.784
1.794
1.774
1.769
1.789
1.799
1.789
1.779
1.789
1.808
1.799
1.784
1.789
1.799
1.789
1.774
1.774
1.784
1.779
1.755
1.755
1.774
1.779
1.764
1.76
1.764
1.769
1.745
1.735
1.75
1.755
1.745
1.74
1.75
1.76
1.74
1.72
1.725
1.735
1.725
1.706
1.696
1.696
1.681
1.652
1.652
1.662
1.667
1.657
1.652
1.662
1.672
1.652
1.647
1.657
1.657
1.642
1.632
1.637
1.647
1.637
1.623
1.632
1.652
1.657
1.647
1.647
1.662
1.652
1.632
1.632
1.647
1.642
1.637
1.637
1.647
1.662
1.642
1.637
1.652
1.657
1.647
1.642
1.657
1.681
1.662
1.642
1.647
1.657
1.652
1.637
1.632
1.642
1.637
1.618
1.632
1.662
1.672
1.667
1.662
1.672
1.672
1.647
1.637
1.652
1.662
1.652
1.642
1.652
1.667
1.657
1.642
1.652
1.667
1.662
1.657
1.657
1.676
1.676
1.652
1.647
1.662
1.662
1.652
1.647
1.657
1.667
1.647
1.642
1.657
1.672
1.662
1.652
1.657
1.667
1.652
1.642
1.652
1.662
1.652
1.642
1.642
1.662
1.662
1.642
1.642
1.662
1.657
1.657
1.652
1.662
1.672
1.642
1.628
1.642
1.647
1.637
1.632
1.647
1.667
1.662
1.652
1.676
1.691
1.686
1.667
1.657
1.657
1.642
1.618
1.618
1.637
1.637
1.632
1.628
1.647
1.657
1.642
1.642
1.657
1.667
1.662
1.657
1.662
1.672
1.657
1.637
1.652
1.667
1.672
1.672
1.672
1.681
1.676
1.642
1.637
1.642
1.642
1.632
1.628
1.642
1.662
1.652
1.652
1.676
1.686
1.676
1.667
1.667
1.676
1.662
1.642
1.652
1.662
1.662
1.652
1.657
1.681
1.681
1.667
1.672
1.696
1.701
1.696
1.691
1.701
1.711
1.686
1.672
1.686
1.691
1.686
1.676
1.686
1.691
1.676
1.652
1.657
1.662
1.652
1.637
1.637
1.657
1.657
1.642
1.652
1.676
1.681
1.672
1.662
1.667
1.672
1.652
1.642
1.662
1.672
1.662
1.657
1.662
1.676
1.662
1.642
1.647
1.657
1.652
1.647
1.647
1.662
1.662
1.637
1.637
1.652
1.657
1.647
1.642
1.652
1.672
1.657
1.652
1.667
1.676
1.676
1.676
1.686
1.711
1.711
1.706
1.725
1.75
1.76
1.755
1.755
1.774
1.769
1.74
1.735
1.74
1.72
1.696
1.667
1.647
1.623
1.574
1.544
1.544
1.549
1.549
1.554
1.584
1.623
1.632
1.637
1.662
1.686
1.701
1.706
1.711
1.72
1.716
1.686
1.681
1.691
1.686
1.676
1.662
1.672
1.686
1.672
1.667
1.686
1.691
1.686
1.676
1.681
1.701
1.696
1.686
1.706
1.725
1.725
1.72
1.716
1.72
1.716
1.686
1.686
1.701
1.701
1.691
1.691
1.706
1.716
1.696
1.681
1.696
1.711
1.711
1.706
1.72
1.74
1.73
1.716
1.725
1.745
1.74
1.73
1.735
1.75
1.75
1.725
1.725
1.74
1.74
1.74
1.74
1.755
1.769
1.755
1.75
1.764
1.769
1.755
1.745
1.745
1.755
1.745
1.73
1.745
1.764
1.764
1.76
1.764
1.784
1.789
1.774
1.774
1.789
1.789
1.789
1.784
1.789
1.799
1.784
1.774
1.784
1.794
1.784
1.779
1.784
1.794
1.779
1.76
1.774
1.784
1.774
1.755
1.745
1.755
1.755
1.73
1.735
1.755
1.755
1.74
1.73
1.735
1.735
1.706
1.686
1.701
1.701
1.691
1.681
1.681
1.696
1.681
1.657
1.667
1.686
1.681
1.672
1.667
1.672
1.667
1.637
1.632
1.642
1.637
1.628
1.623
1.637
1.652
1.637
1.632
1.647
1.657
1.652
1.642
1.652
1.667
1.662
1.647
1.662
1.672
1.662
1.647
1.637
1.642
1.637
1.613
1.608
1.628
1.637
1.637
1.647
1.667
1.681
1.662
1.647
1.657
1.662
1.652
1.642
1.642
1.652
1.652
1.637
1.652
1.672
1.672
1.662
1.662
1.676
1.672
1.642
1.642
1.657
1.662
1.662
1.652
1.662
1.676
1.662
1.657
1.672
1.672
1.657
1.642
1.642
1.657
1.647
1.628
1.637
1.662
1.667
1.662
1.667
1.681
1.676
1.652
1.647
1.657
1.652
1.642
1.637
1.647
1.667
1.652
1.652
1.681
1.706
1.691
1.672
1.667
1.672
1.647
1.618
1.618
1.632
1.632
1.632
1.642
1.657
1.662
1.647
1.647
1.662
1.657
1.642
1.632
1.642
1.652
1.632
1.618
1.628
1.642
1.642
1.647
1.662
1.686
1.681
1.667
1.676
1.686
1.676
1.652
1.637
1.642
1.647
1.628
1.632
1.657
1.667
1.667
1.657
1.662
1.667
1.642
1.628
1.637
1.652
1.647
1.647
1.662
1.681
1.676
1.657
1.662
1.681
1.691
1.686
1.691
1.711
1.711
1.686
1.686
1.706
1.706
1.691
1.676
1.676
1.681
1.662
1.642
1.652
1.657
1.652
1.642
1.647
1.667
1.662
1.642
1.652
1.662
1.657
1.657
1.662
1.676
1.676
1.657
1.652
1.672
1.676
1.662
1.652
1.657
1.667
1.647
1.628
1.632
1.637
1.628
1.618
1.623
1.637
1.632
1.618
1.637
1.662
1.667
1.662
1.662
1.672
1.676
1.657
1.662
1.681
1.691
1.686
1.681
1.696
1.711
1.691
1.681
1.696
1.716
1.72
1.72
1.74
1.764
1.76
1.735
1.74
1.74
1.711
1.672
1.632
1.613
1.584
1.535
1.51
1.51
1.51
1.515
1.54
1.584
1.632
1.642
1.657
1.691
1.711
1.706
1.686
1.676
1.681
1.667
1.647
1.662
1.681
1.686
1.681
1.681
1.696
1.701
1.686
1.686
1.706
1.706
1.696
1.681
1.686
1.696
1.676
1.667
1.686
1.706
1.706
1.706
1.711
1.725
1.72
1.701
1.701
1.716
1.716
1.706
1.716
1.735
1.75
1.725
1.72
1.735
1.73
1.711
1.696
1.696
1.701
1.681
1.676
1.701
1.72
1.725
1.725
1.735
1.755
1.75
1.725
1.735
1.755
1.75
1.74
1.735
1.75
1.76
1.74
1.745
1.764
1.769
1.764
1.76
1.769
1.779
1.764
1.755
1.769
1.784
1.779
1.774
1.779
1.794
1.784
1.764
1.774
1.794
1.794
1.789
1.789
1.804
1.804
1.774
1.764
1.774
1.779
1.769
1.764
1.774
1.789
1.769
1.755
1.764
1.774
1.769
1.76
1.764
1.779
1.769
1.74
1.74
1.75
1.745
1.735
1.73
1.74
1.74
1.716
1.711
1.725
1.72
1.701
1.681
1.681
1.686
1.672
1.657
1.667
1.676
1.667
1.657
1.657
1.672
1.662
1.642
1.647
1.657
1.652
1.642
1.642
1.657
1.657
1.637
1.642
1.657
1.662
1.657
1.647
1.647
1.657
1.632
1.623
1.637
1.647
1.642
1.642
1.652
1.672
1.662
1.642
1.647
1.657
1.652
1.642
1.642
1.657
1.662
1.647
1.652
1.676
1.686
1.676
1.667
1.662
1.662
1.637
1.618
1.632
1.652
1.652
1.647
1.657
1.676
1.672
1.647
1.647
1.652
1.647
1.637
1.632
1.652
1.662
1.647
1.647
1.667
1.672
1.667
1.667
1.681
1.696
1.676
1.657
1.662
1.667
1.657
1.642
1.642
1.652
1.652
1.632
1.642
1.662
1.657
1.647
1.652
1.672
1.676
1.662
1.657
1.672
1.672
1.657
1.642
1.647
1.652
1.637
1.632
1.657
1.681
1.681
1.667
1.667
1.672
1.662
1.628
1.632
1.642
1.642
1.637
1.642
1.657
1.667
1.647
1.637
1.652
1.652
1.647
1.642
1.652
1.672
1.657
1.647
1.662
1.676
1.676
1.662
1.662
1.672
1.662
1.642
1.642
1.652
1.647
1.637
1.637
1.662
1.672
1.652
1.647
1.662
1.672
1.667
1.657
1.662
1.672
1.647
1.637
1.647
1.662
1.657
1.642
1.642
1.657
1.652
1.642
1.662
1.686
1.691
1.686
1.686
1.696
1.691
1.657
1.637
1.642
1.647
1.642
1.642
1.652
1.672
1.672
1.672
1.691
1.711
1.701
1.686
1.681
1.686
1.681
1.667
1.676
1.696
1.691
1.686
1.681
1.691
1.691
1.662
1.657
1.667
1.667
1.657
1.652
1.667
1.681
1.662
1.637
1.642
1.657
1.647
1.637
1.642
1.662
1.662
1.647
1.657
1.672
1.672
1.672
1.672
1.686
1.686
1.657
1.642
1.652
1.652
1.637
1.628
1.632
1.642
1.632
1.623
1.642
1.657
1.657
1.652
1.657
1.672
1.667
1.642
1.647
1.667
1.667
1.662
1.667
1.691
1.711
1.706
1.725
1.764
1.784
1.784
1.784
1.789
1.794
1.764
1.735
1.725
1.711
1.681
1.652
1.632
1.623
1.598
1.559
1.554
1.569
1.574
1.584
1.598
1.632
1.652
1.652
1.667
1.696
1.706
1.706
1.701
1.706
1.711
1.691
1.672
1.681
1.691
1.676
1.667
1.667
1.686
1.691
1.681
1.691
1.711
1.706
1.696
1.686
1.696
1.701
1.676
1.672
1.686
1.696
1.691
1.681
1.691
1.706
1.696
1.691
1.725
1.75
1.75
1.745
1.745
1.75
1.73
1.691
1.676
1.686
1.686
1.686
1.686
1.711
1.725
1.711
1.711
1.73
1.735
1.73
1.72
1.735
1.75
1.735
1.72
1.73
1.74
1.73
1.716
1.72
1.74
1.75
1.735
1.75
1.769
1.774
1.769
1.769
1.784
1.789
1.764
1.755
1.769
1.779
1.769
1.755
1.76
1.769
1.76
1.75
1.764
1.784
1.784
1.779
1.784
1.794
1.784
1.75
1.75
1.764
1.764
1.764
1.769
1.794
1.804
1.784
1.779
1.789
1.784
1.764
1.745
1.745
1.75
1.735
1.72
1.74
1.755
1.75
1.735
1.735
1.74
1.72
1.691
1.691
1.706
1.701
1.686
1.676
1.686
1.686
1.662
1.657
1.676
1.681
1.667
1.662
1.676
1.696
1.676
1.652
1.652
1.652
1.642
1.628
1.623
1.637
1.637
1.618
1.628
1.647
1.657
1.657
1.662
1.672
1.676
1.647
1.637
1.657
1.672
1.662
1.652
1.657
1.672
1.657
1.642
1.647
1.647
1.632
1.623
1.628
1.647
1.647
1.632
1.642
1.662
1.662
1.652
1.647
1.662
1.672
1.652
1.647
1.662
1.667
1.662
1.657
1.662
1.672
1.662
1.657
1.676
1.696
1.681
1.667
1.662
1.667
1.657
1.628
1.637
1.652
1.652
1.652
1.657
1.676
1.686
1.667
1.657
1.672
1.672
1.652
1.642
1.642
1.652
1.642
1.632
1.652
1.672
1.672
1.672
1.676
1.691
1.686
1.657
1.652
1.662
1.657
1.647
1.642
1.657
1.667
1.647
1.642
1.662
1.676
1.672
1.672
1.681
1.691
1.672
1.647
1.652
1.657
1.652
1.642
1.642
1.657
1.657
1.642
1.652
1.676
1.676
1.672
1.667
1.676
1.681
1.652
1.642
1.652
1.647
1.632
1.618
1.628
1.652
1.652
1.652
1.667
1.686
1.681
1.667
1.667
1.676
1.667
1.637
1.642
1.662
1.662
1.657
1.652
1.662
1.667
1.642
1.637
1.657
1.662
1.652
1.647
1.662
1.667
1.652
1.637
1.647
1.662
1.662
1.662
1.662
1.676
1.672
1.652
1.662
1.676
1.676
1.672
1.667
1.686
1.696
1.676
1.676
1.696
1.706
1.706
1.706
1.711
1.72
1.696
1.672
1.672
1.676
1.667
1.647
1.652
1.667
1.662
1.642
1.657
1.681
1.686
1.676
1.672
1.681
1.686
1.662
1.657
1.667
1.672
1.662
1.652
1.662
1.676
1.662
1.642
1.647
1.657
1.642
1.628
1.632
1.652
1.652
1.632
1.637
1.657
1.662
1.652
1.647
1.662
1.667
1.647
1.642
1.662
1.672
1.667
1.657
1.667
1.681
1.672
1.667
1.686
1.706
1.706
1.701
1.706
1.72
1.716
1.701
1.706
1.735
1.745
1.745
1.755
1.774
1.779
1.75
1.725
1.716
1.701
1.662
1.623
1.603
1.588
1.559
1.54
1.564
1.588
1.598
1.613
1.632
1.662
1.676
1.662
1.672
1.691
1.696
1.686
1.681
1.696
1.701
1.676
1.667
1.681
1.696
1.691
1.686
1.691
1.706
1.691
1.672
1.676
1.681
1.676
1.672
1.672
1.696
1.701
1.691
1.696
1.716
1.72
1.716
1.711
1.716
1.716
1.691
1.681
1.696
1.701
1.691
1.681
1.686
1.711
1.706
1.701
1.72
1.74
1.74
1.74
1.745
1.76
1.755
1.72
1.711
1.72
1.716
1.711
1.706
1.716
1.72
1.706
1.711
1.73
1.74
1.73
1.725
1.735
1.75
1.74
1.725
1.74
1.76
1.76
1.755
1.764
1.784
1.784
1.764
1.764
1.779
1.774
1.764
1.76
1.774
1.784
1.764
1.76
1.774
1.784
1.779
1.774
1.779
1.794
1.779
1.764
1.774
1.784
1.774
1.76
1.755
1.769
1.764
1.745
1.75
1.769
1.774
1.764
1.764
1.774
1.779
1.75
1.735
1.745
1.74
1.725
1.706
1.706
1.716
1.701
1.686
1.696
1.711
1.706
1.701
1.701
1.706
1.696
1.662
1.652
1.662
1.657
1.647
1.642
1.652
1.657
1.637
1.637
1.657
1.667
1.657
1.642
1.647
1.667
1.652
1.637
1.642
1.657
1.652
1.642
1.642
1.657
1.662
1.642
1.647
1.662
1.662
1.647
1.637
1.647
1.657
1.642
1.642
1.667
1.676
1.672
1.662
1.662
1.667
1.642
1.623
1.632
1.652
1.652
1.652
1.662
1.681
1.676
1.652
1.652
1.667
1.667
1.662
1.662
1.681
1.691
1.667
1.657
1.662
1.657
1.642
1.632
1.642
1.657
1.647
1.637
1.657
1.672
1.672
1.667
1.667
1.681
1.672
1.647
1.647
1.662
1.662
1.657
1.652
1.662
1.672
1.657
1.662
1.681
1.686
1.676
1.662
1.662
1.672
1.652
1.632
1.637
1.647
1.647
1.642
1.652
1.667
1.667
1.642
1.652
1.676
1.681
1.672
1.662
1.672
1.676
1.657
1.642
1.652
1.652
1.647
1.642
1.657
1.672
1.662
1.642
1.657
1.672
1.672
1.657
1.657
1.667
1.662
1.637
1.637
1.657
1.657
1.657
1.662
1.676
1.686
1.667
1.657
1.667
1.667
1.657
1.647
1.647
1.662
1.652
1.642
1.652
1.672
1.667
1.652
1.652
1.667
1.667
1.642
1.642
1.662
1.667
1.662
1.657
1.672
1.676
1.657
1.647
1.657
1.667
1.667
1.662
1.662
1.672
1.657
1.642
1.657
1.676
1.667
1.657
1.652
1.667
1.667
1.642
1.642
1.657
1.657
1.652
1.652
1.667
1.681
1.672
1.672
1.691
1.696
1.681
1.667
1.667
1.681
1.672
1.652
1.662
1.676
1.676
1.676
1.681
1.701
1.701
1.681
1.691
1.711
1.711
1.701
1.691
1.696
1.701
1.672
1.652
1.662
1.667
1.657
1.652
1.657
1.672
1.667
1.657
1.672
1.686
1.681
1.667
1.662
1.667
1.662
1.637
1.637
1.647
1.652
1.652
1.662
1.676
1.686
1.662
1.652
1.667
1.672
1.662
1.652
1.652
1.667
1.657
1.642
1.652
1.667
1.662
1.652
1.652
1.667
1.672
1.652
1.657
1.681
1.686
1.686
1.691
1.711
1.73
1.73
1.73
1.76
1.774
1.774
1.764
1.769
1.784
1.764
1.735
1.73
1.725
1.696
1.657
1.628
1.608
1.584
1.544
1.544
1.564
1.584
1.598
1.618
1.657
1.696
1.691
1.691
1.706
1.711
1.701
1.686
1.686
1.696
1.681
1.667
1.681
1.701
1.706
1.706
1.711
1.716
1.711
1.676
1.672
1.686
1.691
1.676
1.672
1.691
1.701
1.691
1.691
1.711
1.716
1.706
1.691
1.696
1.706
1.696
1.676
1.691
1.711
1.711
1.711
1.716
1.735
1.74
1.716
1.711
1.72
1.716
1.711
1.701
1.711
1.716
1.696
1.691
1.716
1.73
1.735
1.73
1.74
1.76
1.75
1.735
1.745
1.76
1.745
1.735
1.725
1.74
1.745
1.725
1.73
1.75
1.76
1.755
1.75
1.769
1.794
1.779
1.779
1.794
1.804
1.794
1.779
1.779
1.784
1.769
1.755
1.76
1.774
1.774
1.769
1.769
1.789
1.784
1.764
1.764
1.784
1.794
1.789
1.784
1.794
1.794
1.764
1.75
1.76
1.769
1.764
1.755
1.76
1.774
1.76
1.735
1.74
1.75
1.745
1.73
1.725
1.735
1.735
1.706
1.701
1.716
1.711
1.696
1.686
1.696
1.701
1.676
1.662
1.672
1.676
1.662
1.652
1.652
1.662
1.647
1.632
1.647
1.672
1.676
1.672
1.667
1.681
1.676
1.642
1.632
1.642
1.637
1.628
1.628
1.642
1.662
1.652
1.652
1.672
1.681
1.672
1.662
1.662
1.676
1.662
1.647
1.662
1.676
1.672
1.657
1.652
1.662
1.657
1.628
1.623
1.642
1.647
1.647
1.652
1.676
1.696
1.676
1.662
1.672
1.672
1.657
1.647
1.652
1.672
1.667
1.657
1.672
1.691
1.686
1.676
1.672
1.681
1.681
1.667
1.662
1.676
1.672
1.657
1.647
1.657
1.667
1.642
1.637
1.652
1.667
1.667
1.667
1.676
1.681
1.662
1.632
1.632
1.647
1.647
1.647
1.647
1.667
1.681
1.672
1.686
1.706
1.706
1.691
1.676
1.672
1.672
1.642
1.628
1.642
1.652
1.657
1.652
1.662
1.681
1.672
1.657
1.662
1.676
1.667
1.652
1.652
1.667
1.667
1.647
1.647
1.662
1.667
1.662
1.657
1.667
1.676
1.662
1.662
1.686
1.696
1.686
1.672
1.672
1.681
1.667
1.642
1.652
1.662
1.657
1.657
1.667
1.681
1.681
1.652
1.647
1.657
1.657
1.647
1.642
1.657
1.676
1.662
1.662
1.676
1.686
1.681
1.676
1.681
1.696
1.686
1.667
1.676
1.686
1.681
1.667
1.662
1.676
1.672
1.647
1.657
1.681
1.681
1.676
1.667
1.676
1.686
1.662
1.652
1.662
1.672
1.662
1.657
1.667
1.686
1.676
1.662
1.672
1.686
1.681
1.676
1.676
1.691
1.696
1.676
1.676
1.696
1.701
1.696
1.696
1.711
1.72
1.701
1.691
1.706
1.716
1.711
1.696
1.701
1.711
1.701
1.681
1.681
1.691
1.681
1.672
1.667
1.676
1.672
1.647
1.652
1.676
1.686
1.681
1.676
1.691
1.701
1.681
1.667
1.676
1.676
1.672
1.657
1.662
1.672
1.657
1.632
1.647
1.667
1.667
1.657
1.657
1.667
1.667
1.642
1.647
1.667
1.672
1.662
1.657
1.672
1.686
1.672
1.657
1.672
1.681
1.681
1.681
1.696
1.72
1.72
1.706
1.716
1.73
1.725
1.72
1.725
1.755
1.769
1.76
1.774
1.794
1.794
1.769
1.74
1.72
1.701
1.647
1.603
1.593
1.588
1.574
1.564
1.574
1.603
1.618
1.618
1.647
1.676
1.686
1.686
1.696
1.711
1.711
1.686
1.686
1.706
1.711
1.706
1.701
1.706
1.711
1.691
1.681
1.706
1.72
1.725
1.725
1.725
1.74
1.725
1.696
1.691
1.691
1.676
1.662
1.662
1.681
1.691
1.681
1.696
1.725
1.735
1.73
1.72
1.73
1.74
1.716
1.696
1.706
1.716
1.711
1.711
1.72
1.735
1.73
1.72
1.73
1.745
1.745
1.735
1.73
1.745
1.745
1.72
1.72
1.74
1.755
1.755
1.755
1.769
1.774
1.755
1.745
1.755
1.76
1.75
1.74
1.745
1.764
1.764
1.75
1.76
1.774
1.774
1.769
1.769
1.789
1.794
1.774
1.779
1.804
1.808
1.804
1.799
1.804
1.808
1.784
1.769
1.779
1.784
1.769
1.76
1.774
1.799
1.794
1.779
1.789
1.804
1.804
1.794
1.789
1.794
1.789
1.76
1.755
1.769
1.769
1.755
1.74
1.745
1.75
1.725
1.711
1.72
1.725
1.716
1.706
1.711
1.72
1.711
1.691
1.696
1.711
1.701
1.691
1.686
1.696
1.701
1.672
1.667
1.676
1.676
1.662
1.647
1.647
1.657
1.637
1.628
1.642
1.652
1.647
1.642
1.652
1.672
1.667
1.647
1.657
1.672
1.672
1.662
1.662
1.676
1.676
1.652
1.652
1.667
1.672
1.657
1.652
1.662
1.672
1.652
1.642
1.657
1.672
1.667
1.662
1.667
1.681
1.672
1.652
1.662
1.681
1.681
1.676
1.676
1.696
1.696
1.667
1.662
1.672
1.672
1.657
1.647
1.657
1.672
1.652
1.642
1.662
1.672
1.662
1.657
1.667
1.681
1.676
1.662
1.681
1.706
1.711
1.701
1.696
1.701
1.691
1.657
1.642
1.652
1.647
1.637
1.632
1.647
1.662
1.652
1.647
1.667
1.676
1.672
1.662
1.662
1.681
1.672
1.652
1.662
1.676
1.676
1.667
1.662
1.672
1.672
1.647
1.637
1.652
1.657
1.652
1.652
1.672
1.686
1.676
1.672
1.686
1.691
1.681
1.672
1.672
1.686
1.676
1.657
1.667
1.676
1.672
1.662
1.662
1.672
1.672
1.652
1.647
1.667
1.672
1.662
1.657
1.662
1.672
1.647
1.637
1.652
1.662
1.657
1.652
1.657
1.676
1.672
1.657
1.667
1.686
1.686
1.676
1.672
1.686
1.686
1.662
1.657
1.676
1.676
1.676
1.672
1.686
1.691
1.676
1.662
1.676
1.691
1.691
1.686
1.701
1.716
1.701
1.676
1.676
1.676
1.662
1.637
1.623
1.628
1.632
1.618
1.628
1.657
1.676
1.676
1.672
1.681
1.691
1.672
1.652
1.667
1.676
1.667
1.662
1.667
1.686
1.681
1.662
1.672
1.686
1.686
1.676
1.676
1.691
1.696
1.672
1.672
1.696
1.706
1.701
1.701
1.716
1.73
1.711
1.696
1.706
1.706
1.686
1.672
1.676
1.691
1.691
1.672
1.676
1.686
1.686
1.676
1.672
1.676
1.676
1.652
1.652
1.672
1.676
1.667
1.652
1.657
1.667
1.647
1.637
1.657
1.667
1.662
1.662
1.667
1.686
1.681
1.662
1.676
1.701
1.706
1.696
1.686
1.686
1.676
1.637
1.623
1.642
1.647
1.642
1.642
1.657
1.676
1.662
1.657
1.667
1.672
1.662
1.652
1.662
1.681
1.686
1.672
1.686
1.711
1.716
1.716
1.725
1.755
1.769
1.755
1.76
1.774
1.769
1.75
1.725
1.716
1.711
1.667
1.628
1.613
1.598
1.574
1.554
1.549
1.574
1.579
1.584
1.618
1.662
1.681
1.686
1.686
1.701
1.696
1.672
1.667
1.691
1.701
1.701
1.701
1.711
1.72
1.701
1.686
1.696
1.706
1.696
1.686
1.696
1.716
1.706
1.691
1.696
1.711
1.711
1.706
1.706
1.72
1.725
1.706
1.706
1.72
1.73
1.72
1.716
1.725
1.735
1.72
1.711
1.72
1.73
1.725
1.716
1.716
1.73
1.72
1.706
1.711
1.725
1.735
1.745
1.755
1.774
1.779
1.755
1.75
1.755
1.75
1.73
1.711
1.716
1.725
1.72
1.716
1.74
1.76
1.764
1.76
1.764
1.784
1.779
1.76
1.764
1.779
1.784
1.784
1.789
1.804
1.804
1.779
1.779
1.789
1.789
1.774
1.764
1.769
1.784
1.779
1.779
1.799
1.818
1.813
1.808
1.808
1.818
1.799
1.774
1.779
1.789
1.794
1.789
1.789
1.799
1.799
1.774
1.764
1.774
1.774
1.76
1.745
1.75
1.76
1.74
1.725
1.735
1.745
1.735
1.725
1.72
1.73
1.716
1.691
1.691
1.701
1.691
1.681
1.672
1.686
1.686
1.667
1.667
1.681
1.676
1.657
1.642
1.652
1.662
1.642
1.632
1.642
1.647
1.637
1.632
1.637
1.662
1.662
1.647
1.657
1.676
1.686
1.676
1.676
1.681
1.676
1.642
1.632
1.642
1.642
1.632
1.623
1.632
1.647
1.632
1.628
1.652
1.667
1.662
1.652
1.657
1.672
1.662
1.642
1.652
1.667
1.667
1.662
1.657
1.672
1.676
1.657
1.652
1.672
1.676
1.667
1.662
1.672
1.676
1.657
1.642
1.652
1.667
1.662
1.657
1.667
1.681
1.676
1.662
1.667
1.681
1.672
1.657
1.647
1.657
1.657
1.632
1.632
1.657
1.662
1.657
1.657
1.667
1.681
1.667
1.652
1.667
1.676
1.672
1.667
1.676
1.691
1.681
1.662
1.667
1.681
1.676
1.662
1.657
1.662
1.662
1.637
1.632
1.647
1.652
1.642
1.637
1.647
1.662
1.647
1.637
1.652
1.662
1.657
1.647
1.652
1.667
1.662
1.642
1.652
1.667
1.662
1.657
1.657
1.672
1.686
1.672
1.676
1.691
1.696
1.681
1.667
1.672
1.676
1.657
1.647
1.662
1.667
1.657
1.647
1.652
1.662
1.652
1.628
1.628
1.647
1.647
1.642
1.642
1.652
1.652
1.628
1.628
1.647
1.657
1.657
1.652
1.667
1.676
1.662
1.647
1.662
1.672
1.667
1.662
1.667
1.681
1.672
1.652
1.657
1.672
1.672
1.662
1.662
1.676
1.681
1.657
1.657
1.681
1.686
1.686
1.686
1.701
1.711
1.686
1.672
1.676
1.672
1.657
1.637
1.637
1.657
1.657
1.647
1.662
1.686
1.691
1.681
1.676
1.691
1.691
1.662
1.657
1.676
1.681
1.672
1.667
1.681
1.701
1.691
1.686
1.711
1.725
1.725
1.716
1.711
1.72
1.706
1.681
1.681
1.691
1.691
1.686
1.686
1.701
1.706
1.681
1.672
1.681
1.681
1.667
1.657
1.662
1.667
1.652
1.637
1.652
1.662
1.657
1.652
1.652
1.672
1.667
1.642
1.647
1.667
1.662
1.657
1.652
1.667
1.676
1.662
1.662
1.681
1.686
1.676
1.667
1.667
1.672
1.652
1.637
1.652
1.667
1.667
1.662
1.672
1.701
1.711
1.701
1.716
1.735
1.74
1.74
1.745
1.769
1.779
1.764
1.76
1.769
1.76
1.73
1.701
1.686
1.667
1.618
1.569
1.559
1.554
1.544
1.544
1.564
1.593
1.608
1.618
1.647
1.686
1.696
1.691
1.686
1.696
1.691
1.667
1.662
1.681
1.691
1.691
1.686
1.701
1.716
1.696
1.686
1.691
1.701
1.696
1.691
1.701
1.725
1.716
1.696
1.701
1.72
1.716
1.701
1.696
1.701
1.706
1.681
1.686
1.711
1.725
1.72
1.716
1.725
1.74
1.72
1.711
1.716
1.725
1.716
1.706
1.711
1.73
1.725
1.711
1.716
1.735
1.735
1.73
1.725
1.74
1.74
1.72
1.716
1.74
1.745
1.74
1.735
1.745
1.755
1.74
1.725
1.74
1.755
1.755
1.75
1.76
1.774
1.769
1.75
1.755
1.769
1.774
1.764
1.76
1.774
1.779
1.76
1.764
1.784
1.794
1.789
1.784
1.789
1.799
1.784
1.769
1.779
1.789
1.779
1.769
1.774
1.794
1.794
1.774
1.779
1.799
1.794
1.784
1.774
1.779
1.769
1.735
1.72
1.73
1.735
1.73
1.73
1.75
1.764
1.745
1.73
1.735
1.745
1.73
1.716
1.706
1.711
1.696
1.672
1.676
1.691
1.686
1.672
1.662
1.676
1.686
1.662
1.652
1.667
1.667
1.662
1.652
1.657
1.667
1.657
1.647
1.657
1.662
1.652
1.637
1.632
1.642
1.637
1.618
1.628
1.647
1.647
1.637
1.637
1.647
1.652
1.632
1.632
1.657
1.667
1.662
1.662
1.667
1.676
1.657
1.642
1.652
1.662
1.652
1.647
1.652
1.672
1.662
1.642
1.647
1.662
1.652
1.642
1.637
1.652
1.667
1.657
1.662
1.681
1.681
1.667
1.652
1.657
1.662
1.637
1.623
1.637
1.652
1.652
1.652
1.657
1.672
1.667
1.642
1.647
1.662
1.662
1.652
1.647
1.662
1.667
1.642
1.637
1.657
1.667
1.662
1.657
1.667
1.676
1.662
1.647
1.652
1.662
1.652
1.642
1.647
1.667
1.662
1.642
1.647
1.662
1.657
1.652
1.647
1.657
1.662
1.632
1.632
1.657
1.672
1.667
1.657
1.667
1.681
1.662
1.647
1.657
1.662
1.652
1.637
1.642
1.662
1.652
1.637
1.652
1.672
1.676
1.667
1.662
1.681
1.681
1.652
1.642
1.657
1.662
1.657
1.652
1.662
1.676
1.662
1.647
1.657
1.667
1.657
1.642
1.642
1.657
1.647
1.632
1.647
1.676
1.681
1.676
1.681
1.696
1.696
1.672
1.662
1.672
1.676
1.662
1.652
1.662
1.681
1.667
1.652
1.672
1.681
1.681
1.676
1.681
1.701
1.701
1.686
1.696
1.711
1.706
1.696
1.691
1.701
1.701
1.672
1.657
1.662
1.667
1.657
1.647
1.657
1.667
1.652
1.652
1.672
1.681
1.672
1.657
1.657
1.672
1.657
1.632
1.637
1.652
1.657
1.652
1.647
1.662
1.672
1.652
1.652
1.667
1.672
1.657
1.647
1.652
1.657
1.642
1.632
1.647
1.662
1.662
1.657
1.662
1.681
1.681
1.662
1.667
1.676
1.676
1.662
1.657
1.672
1.681
1.667
1.676
1.706
1.725
1.73
1.735
1.75
1.764
1.75
1.73
1.73
1.725
1.701
1.672
1.657
1.652
1.623
1.574
1.554
1.554
1.549
1.54
1.544
1.574
1.598
1.598
1.618
1.657
1.676
1.676
1.672
1.681
1.686
1.672
1.657
1.681
1.701
1.701
1.696
1.701
1.711
1.701
1.672
1.676
1.696
1.701
1.696
1.701
1.716
1.72
1.696
1.691
1.701
1.701
1.691
1.686
1.696
1.711
1.696
1.686
1.701
1.711
1.706
1.701
1.701
1.716
1.711
1.686
1.691
1.711
1.711
1.706
1.701
1.716
1.73
1.716
1.725
1.75
1.755
1.745
1.735
1.74
1.75
1.73
1.716
1.725
1.74
1.73
1.72
1.725
1.74
1.735
1.711
1.711
1.73
1.735
1.735
1.74
1.764
1.774
1.755
1.75
1.769
1.779
1.774
1.769
1.779
1.789
1.774
1.764
1.779
1.799
1.794
1.784
1.784
1.799
1.789
1.764
1.764
1.779
1.779
1.774
1.774
1.789
1.794
1.769
1.76
1.764
1.764
1.755
1.745
1.75
1.764
1.75
1.74
1.75
1.755
1.75
1.74
1.745
1.76
1.75
1.725
1.725
1.745
1.74
1.716
1.696
1.696
1.691
1.657
1.647
1.657
1.662
1.652
1.652
1.667
1.681
1.662
1.642
1.652
1.657
1.642
1.623
1.623
1.642
1.642
1.632
1.642
1.662
1.662
1.652
1.647
1.652
1.657
1.632
1.628
1.647
1.652
1.642
1.632
1.642
1.652
1.637
1.628
1.647
1.662
1.657
1.652
1.657
1.667
1.662
1.637
1.642
1.657
1.652
1.642
1.637
1.647
1.652
1.632
1.632
1.662
1.676
1.676
1.672
1.676
1.686
1.662
1.642
1.647
1.652
1.642
1.637
1.642
1.662
1.662
1.642
1.647
1.657
1.657
1.647
1.642
1.662
1.676
1.657
1.652
1.667
1.672
1.662
1.647
1.652
1.662
1.647
1.637
1.657
1.676
1.672
1.662
1.667
1.681
1.672
1.642
1.647
1.662
1.662
1.652
1.652
1.662
1.662
1.642
1.637
1.657
1.662
1.657
1.652
1.657
1.667
1.647
1.642
1.652
1.667
1.657
1.647
1.647
1.667
1.667
1.647
1.647
1.662
1.662
1.657
1.652
1.667
1.672
1.647
1.642
1.657
1.662
1.652
1.642
1.647
1.667
1.657
1.642
1.652
1.662
1.657
1.647
1.652
1.672
1.667
1.642
1.647
1.662
1.662
1.652
1.652
1.662
1.672
1.657
1.657
1.681
1.691
1.681
1.667
1.667
1.672
1.652
1.642
1.657
1.672
1.667
1.657
1.667
1.686
1.676
1.652
1.647
1.657
1.652
1.652
1.657
1.681
1.691
1.672
1.672
1.686
1.691
1.686
1.672
1.676
1.686
1.667
1.652
1.662
1.676
1.676
1.672
1.672
1.686
1.681
1.657
1.662
1.681
1.681
1.667
1.662
1.676
1.691
1.667
1.662
1.672
1.676
1.667
1.657
1.672
1.686
1.667
1.652
1.657
1.667
1.657
1.642
1.637
1.647
1.642
1.623
1.637
1.662
1.672
1.662
1.657
1.667
1.667
1.642
1.632
1.647
1.657
1.652
1.647
1.662
1.681
1.676
1.667
1.681
1.696
1.696
1.696
1.711
1.735
1.745
1.73
1.745
1.769
1.769
1.764
1.755
1.755
1.74
1.701
1.672
1.667
1.647
1.618
1.584
1.574
1.569
1.554
1.549
1.579
1.603
1.618
1.632
1.652
1.686
1.696
1.691
1.701
1.716
1.716
1.706
1.691
1.691
1.686
1.657
1.647
1.657
1.662
1.662
1.662
1.681
1.701
1.691
1.676
1.686
1.696
1.686
1.676
1.686
1.706
1.701
1.681
1.686
1.706
1.706
1.701
1.696
1.706
1.716
1.696
1.696
1.711
1.72
1.716
1.706
1.716
1.725
1.706
1.696
1.706
1.72
1.72
1.72
1.73
1.75
1.745
1.72
1.725
1.74
1.735
1.725
1.72
1.73
1.735
1.72
1.72
1.745
1.755
1.75
1.74
1.75
1.764
1.75
1.74
1.755
1.774
1.774
1.764
1.764
1.784
1.784
1.774
1.779
1.804
1.804
1.794
1.784
1.794
1.789
1.76
1.75
1.764
1.769
1.769
1.769
1.784
1.804
1.794
1.779
1.794
1.804
1.799
1.784
1.784
1.789
1.779
1.75
1.75
1.764
1.76
1.755
1.745
1.755
1.76
1.735
1.735
1.75
1.755
1.745
1.735
1.74
1.755
1.735
1.711
1.716
1.72
1.711
1.696
1.686
1.691
1.681
1.652
1.652
1.657
1.652
1.637
1.632
1.647
1.652
1.637
1.632
1.652
1.662
1.657
1.652
1.662
1.676
1.667
1.652
1.657
1.667
1.657
1.642
1.642
1.657
1.647
1.628
1.632
1.652
1.657
1.647
1.642
1.652
1.657
1.637
1.632
1.647
1.657
1.647
1.647
1.662
1.672
1.662
1.647
1.662
1.672
1.657
1.647
1.647
1.662
1.662
1.647
1.657
1.681
1.686
1.686
1.681
1.686
1.686
1.657
1.647
1.657
1.662
1.652
1.647
1.652
1.662
1.647
1.642
1.657
1.672
1.667
1.657
1.652
1.667
1.657
1.632
1.637
1.662
1.667
1.662
1.662
1.676
1.681
1.657
1.647
1.662
1.662
1.657
1.662
1.672
1.686
1.667
1.647
1.652
1.662
1.652
1.642
1.642
1.662
1.662
1.647
1.652
1.676
1.676
1.667
1.657
1.667
1.667
1.642
1.632
1.647
1.657
1.662
1.662
1.672
1.686
1.676
1.657
1.667
1.672
1.662
1.647
1.647
1.662
1.662
1.642
1.647
1.667
1.667
1.657
1.657
1.676
1.681
1.662
1.657
1.667
1.667
1.652
1.637
1.642
1.657
1.647
1.642
1.662
1.681
1.676
1.667
1.662
1.667
1.657
1.628
1.628
1.642
1.647
1.642
1.642
1.662
1.676
1.657
1.657
1.676
1.686
1.681
1.672
1.672
1.686
1.672
1.657
1.667
1.681
1.676
1.672
1.672
1.691
1.691
1.676
1.681
1.701
1.696
1.681
1.672
1.681
1.686
1.667
1.662
1.681
1.696
1.696
1.696
1.706
1.716
1.696
1.676
1.686
1.691
1.681
1.667
1.662
1.676
1.672
1.657
1.662
1.681
1.681
1.676
1.672
1.681
1.686
1.662
1.657
1.672
1.681
1.667
1.662
1.667
1.676
1.662
1.637
1.642
1.657
1.652
1.642
1.647
1.672
1.676
1.662
1.667
1.681
1.672
1.662
1.652
1.657
1.667
1.642
1.642
1.662
1.676
1.672
1.667
1.681
1.691
1.681
1.667
1.681
1.701
1.701
1.706
1.716
1.745
1.755
1.75
1.764
1.794
1.808
1.804
1.794
1.784
1.769
1.72
1.681
1.662
1.632
1.588
1.559
1.554
1.564
1.559
1.559
1.588
1.623
1.637
1.647
1.662
1.691
1.691
1.672
1.681
1.701
1.696
1.691
1.686
1.701
1.711
1.686
1.676
1.691
1.696
1.696
1.686
1.696
1.711
1.701
1.686
1.696
1.711
1.716
1.711
1.711
1.716
1.706
1.676
1.681
1.701
1.706
1.696
1.696
1.711
1.72
1.701
1.701
1.711
1.716
1.706
1.696
1.706
1.725
1.716
1.706
1.72
1.735
1.73
1.725
1.73
1.75
1.745
1.725
1.725
1.735
1.735
1.725
1.72
1.73
1.73
1.711
1.716
1.745
1.76
1.76
1.75
1.76
1.774
1.76
1.745
1.755
1.769
1.764
1.76
1.769
1.789
1.794
1.774
1.774
1.789
1.784
1.774
1.764
1.779
1.789
1.774
1.774
1.794
1.799
1.799
1.799
1.808
1.813
1.794
1.774
1.784
1.799
1.799
1.784
1.779
1.789
1.784
1.755
1.755
1.764
1.76
1.745
1.74
1.75
1.755
1.735
1.725
1.74
1.745
1.735
1.725
1.725
1.73
1.716
1.691
1.696
1.696
1.686
1.676
1.681
1.701
1.696
1.667
1.662
1.672
1.662
1.647
1.637
1.642
1.647
1.628
1.628
1.652
1.662
1.662
1.657
1.667
1.676
1.662
1.647
1.657
1.672
1.662
1.652
1.657
1.676
1.667
1.637
1.637
1.647
1.647
1.637
1.623
1.637
1.642
1.623
1.623
1.642
1.652
1.647
1.642
1.647
1.662
1.647
1.632
1.652
1.667
1.667
1.662
1.667
1.686
1.696
1.676
1.681
1.686
1.681
1.667
1.652
1.652
1.652
1.623
1.608
1.628
1.637
1.632
1.632
1.647
1.667
1.662
1.647
1.657
1.672
1.667
1.662
1.672
1.686
1.686
1.662
1.662
1.676
1.672
1.662
1.652
1.662
1.672
1.657
1.657
1.672
1.676
1.667
1.652
1.652
1.657
1.642
1.623
1.632
1.647
1.647
1.642
1.647
1.662
1.667
1.652
1.657
1.672
1.667
1.657
1.647
1.657
1.657
1.632
1.623
1.642
1.652
1.647
1.642
1.662
1.686
1.676
1.657
1.667
1.676
1.662
1.647
1.637
1.647
1.642
1.623
1.628
1.652
1.662
1.662
1.662
1.676
1.686
1.662
1.652
1.667
1.672
1.667
1.652
1.657
1.662
1.642
1.628
1.642
1.657
1.657
1.652
1.657
1.672
1.672
1.647
1.652
1.662
1.662
1.657
1.657
1.672
1.676
1.657
1.652
1.667
1.667
1.657
1.642
1.652
1.662
1.652
1.637
1.657
1.681
1.681
1.676
1.676
1.691
1.686
1.662
1.667
1.676
1.672
1.657
1.652
1.667
1.681
1.667
1.662
1.681
1.691
1.691
1.686
1.696
1.711
1.691
1.672
1.676
1.691
1.686
1.676
1.672
1.681
1.676
1.657
1.662
1.681
1.686
1.676
1.667
1.672
1.676
1.647
1.642
1.657
1.662
1.657
1.647
1.657
1.676
1.667
1.652
1.662
1.676
1.672
1.662
1.662
1.676
1.672
1.647
1.647
1.657
1.652
1.637
1.632
1.647
1.657
1.642
1.637
1.662
1.672
1.667
1.657
1.662
1.681
1.676
1.662
1.676
1.691
1.691
1.681
1.681
1.701
1.701
1.681
1.691
1.72
1.735
1.745
1.76
1.784
1.799
1.774
1.76
1.755
1.74
1.711
1.672
1.647
1.628
1.588
1.554
1.554
1.569
1.579
1.598
1.623
1.662
1.676
1.672
1.686
1.706
1.706
1.696
1.686
1.701
1.711
1.686
1.676
1.691
1.701
1.691
1.676
1.681
1.691
1.686
1.676
1.696
1.706
1.701
1.686
1.686
1.701
1.696
1.672
1.676
1.701
1.706
1.701
1.701
1.711
1.72
1.701
1.696
1.716
1.73
1.73
1.725
1.73
1.75
1.745
1.725
1.73
1.74
1.73
1.72
1.72
1.73
1.725
1.701
1.701
1.72
1.72
1.72
1.72
1.74
1.75
1.74
1.74
1.76
1.764
1.755
1.74
1.745
1.755
1.745
1.73
1.75
1.769
1.769
1.764
1.764
1.784
1.784
1.76
1.769
1.789
1.794
1.789
1.784
1.794
1.799
1.784
1.779
1.799
1.808
1.804
1.799
1.804
1.818
1.799
1.779
1.779
1.789
1.779
1.769
1.764
1.779
1.779
1.76
1.764
1.794
1.799
1.799
1.794
1.804
1.813
1.784
1.764
1.764
1.76
1.745
1.73
1.74
1.75
1.735
1.716
1.72
1.73
1.72
1.706
1.696
1.706
1.701
1.676
1.681
1.701
1.696
1.676
1.662
1.667
1.667
1.642
1.628
1.642
1.652
1.647
1.642
1.652
1.672
1.657
1.642
1.647
1.657
1.652
1.652
1.652
1.672
1.667
1.647
1.642
1.657
1.657
1.642
1.637
1.652
1.652
1.628
1.623
1.642
1.652
1.647
1.642
1.652
1.672
1.662
1.647
1.662
1.681
1.676
1.662
1.657
1.667
1.652
1.628
1.628
1.642
1.647
1.642
1.642
1.667
1.681
1.667
1.667
1.686
1.691
1.681
1.667
1.662
1.667
1.652
1.632
1.642
1.657
1.657
1.652
1.662
1.681
1.681
1.657
1.652
1.667
1.662
1.647
1.642
1.652
1.657
1.637
1.632
1.662
1.676
1.672
1.667
1.672
1.681
1.667
1.647
1.657
1.667
1.657
1.647
1.652
1.672
1.676
1.662
1.667
1.676
1.676
1.662
1.642
1.652
1.652
1.623
1.618
1.632
1.647
1.642
1.647
1.662
1.676
1.662
1.642
1.647
1.657
1.647
1.637
1.637
1.657
1.662
1.647
1.662
1.686
1.686
1.676
1.662
1.667
1.667
1.637
1.623
1.637
1.647
1.647
1.652
1.662
1.681
1.672
1.657
1.667
1.676
1.667
1.652
1.652
1.662
1.662
1.637
1.642
1.657
1.657
1.647
1.652
1.672
1.681
1.662
1.657
1.676
1.686
1.672
1.657
1.662
1.672
1.657
1.642
1.657
1.672
1.672
1.667
1.672
1.691
1.681
1.657
1.662
1.676
1.681
1.681
1.681
1.706
1.72
1.706
1.701
1.716
1.72
1.706
1.691
1.691
1.696
1.676
1.652
1.662
1.672
1.662
1.647
1.647
1.657
1.657
1.642
1.652
1.676
1.681
1.672
1.667
1.672
1.681
1.652
1.637
1.647
1.652
1.652
1.652
1.672
1.696
1.686
1.672
1.676
1.691
1.681
1.667
1.662
1.662
1.652
1.623
1.623
1.642
1.647
1.642
1.642
1.657
1.672
1.652
1.652
1.667
1.676
1.672
1.672
1.676
1.691
1.676
1.667
1.681
1.701
1.701
1.701
1.711
1.735
1.745
1.735
1.755
1.774
1.769
1.75
1.725
1.711
1.686
1.628
1.584
1.564
1.54
1.515
1.505
1.525
1.559
1.574
1.584
1.628
1.662
1.676
1.676
1.681
1.701
1.696
1.667
1.662
1.672
1.667
1.657
1.657
1.672
1.686
1.676
1.676
1.701
1.711
1.706
1.701
1.706
1.716
1.696
1.681
1.696
1.711
1.706
1.696
1.701
1.711
1.701
1.676
1.676
1.696
1.701
1.696
1.701
1.716
1.725
1.701
1.691
1.706
1.711
1.701
1.696
1.706
1.725
1.72
1.716
1.73
1.75
1.745
1.735
1.73
1.74
1.73
1.701
1.696
1.706
1.711
1.711
1.716
1.74
1.76
1.75
1.75
1.774
1.779
1.769
1.76
1.755
1.76
1.74
1.72
1.74
1.764
1.769
1.769
1.769
1.794
1.799
1.779
1.779
1.794
1.789
1.779
1.769
1.774
1.779
1.755
1.75
1.764
1.774
1.774
1.769
1.779
1.794
1.779
1.76
1.769
1.784
1.779
1.769
1.769
1.789
1.784
1.76
1.755
1.764
1.764
1.75
1.74
1.75
1.755
1.73
1.72
1.73
1.73
1.716
1.701
1.696
1.701
1.676
1.652
1.662
1.672
1.667
1.657
1.657
1.672
1.681
1.672
1.676
1.681
1.672
1.652
1.637
1.642
1.642
1.613
1.608
1.628
1.642
1.637
1.637
1.642
1.652
1.642
1.628
1.637
1.652
1.657
1.647
1.652
1.667
1.662
1.642
1.642
1.657
1.652
1.642
1.637
1.647
1.657
1.628
1.618
1.637
1.647
1.652
1.647
1.657
1.676
1.667
1.647
1.657
1.672
1.662
1.647
1.647
1.667
1.667
1.652
1.657
1.676
1.676
1.667
1.657
1.672
1.676
1.652
1.642
1.652
1.662
1.657
1.652
1.657
1.672
1.657
1.642
1.652
1.672
1.667
1.657
1.657
1.672
1.672
1.652
1.652
1.672
1.667
1.657
1.647
1.657
1.667
1.647
1.637
1.657
1.662
1.657
1.652
1.657
1.672
1.657
1.642
1.642
1.652
1.647
1.642
1.642
1.662
1.667
1.647
1.657
1.676
1.681
1.667
1.647
1.637
1.632
1.608
1.608
1.628
1.647
1.662
1.672
1.691
1.711
1.711
1.701
1.72
1.745
1.75
1.745
1.745
1.755
1.75
1.716
1.701
1.706
1.711
1.716
1.725
1.755
1.769
1.755
1.755
1.76
1.745
1.706
1.667
1.652
1.662
1.652
1.628
1.637
1.647
1.647
1.647
1.647
1.662
1.657
1.632
1.632
1.642
1.637
1.628
1.623
1.637
1.652
1.632
1.618
1.628
1.637
1.637
1.637
1.642
1.652
1.632
1.618
1.632
1.652
1.652
1.637
1.618
1.608
1.574
1.535
1.525
1.549
1.569
1.584
1.603
1.632
1.647
1.628
1.628
1.642
1.632
1.608
1.608
1.637
1.676
1.672
1.652
1.652
1.647
1.618
1.584
1.569
1.569
1.54
1.481
1.461
1.476
1.505
1.53
1.564
1.613
1.662
1.672
1.672
1.672
1.637
1.584
1.535
1.52
1.544
1.564
1.588
1.642
1.701
1.725
1.73
1.72
1.706
1.672
1.628
1.623
1.642
1.657
1.667
1.676
1.701
1.735
1.755
1.779
1.799
1.779
1.716
1.647
1.593
1.564
1.52
1.491
1.505
1.535
1.544
1.549
1.535
1.515
1.471
1.413
1.408
1.442
1.491
1.554
1.628
1.696
1.745
1.74
1.711
1.686
1.642
1.598
1.574
1.588
1.623
1.637
1.652
1.681
1.706
1.701
1.672
1.632
1.608
1.588
1.564
1.569
1.584
1.584
1.579
1.584
1.618
1.647
1.642
1.628
1.623
1.603
1.584
1.574
1.579
1.608
1.623
1.628
1.657
1.686
1.716
1.74
1.75
1.755
1.725
1.662
1.618
1.588
1.54
1.491
1.466
1.491
1.544
1.574
1.613
1.662
1.696
1.711
1.706
1.701
1.691
1.647
1.608
1.608
1.637
1.676
1.72
1.769
1.823
1.843
1.828
1.813
1.789
1.74
1.681
1.632
1.603
1.574
1.54
1.535
1.569
1.618
1.662
1.711
1.755
1.779
1.764
1.73
1.711
1.686
1.647
1.608
1.569
1.549
1.525
1.496
1.5
1.525
1.549
1.569
1.588
1.618
1.632
1.628
1.642
1.662
1.667
1.647
1.608
1.579
1.564
1.544
1.54
1.559
1.574
1.579
1.579
1.593
1.628
1.647
1.642
1.637
1.632
1.598
1.549
1.515
1.51
1.51
1.486
1.476
1.481
1.491
1.496
1.52
1.554
1.588
1.579
1.549
1.525
1.505
1.461
1.413
1.383
1.383
1.398
1.408
1.447
1.491
1.525
1.54
1.554
1.564
1.564
1.53
1.505
1.515
1.544
1.569
1.598
1.608
1.598
1.525
1.447
1.408
1.398
1.383
1.378
1.398
1.457
1.515
1.554
1.574
1.569
1.53
1.481
1.432
1.413
1.413
1.427
1.476
1.544
1.603
1.632
1.632
1.628
1.623
1.593
1.554
1.525
1.51
1.5
1.5
1.5
1.515
1.525
1.53
1.549
1.569
1.569
1.564
1.564
1.569
1.564
1.544
1.554
1.598
1.637
1.657
1.662
1.662
1.667
1.657
1.662
1.691
1.716
1.716
1.706
1.701
1.706
1.696
1.647
1.623
1.613
1.603
1.598
1.584
1.584
1.569
1.54
1.525
1.53
1.535
1.53
1.525
1.54
1.569
1.579
1.579
1.593
1.598
1.593
1.598
1.618
1.647
1.647
1.623
1.628
1.647
1.642
1.618
1.584
1.564
1.54
1.491
1.466
1.481
1.491
1.5
1.54
1.603
1.676
1.716
1.73
1.735
1.706
1.652
1.608
1.593
1.608
1.623
1.628
1.652
1.691
1.72
1.716
1.691
1.672
1.647
1.613
1.593
1.603
1.618
1.623
1.623
1.632
1.637
1.613
1.574
1.549
1.525
1.486
1.461
1.481
1.54
1.579
1.593
1.632
1.696
1.75
1.794
1.808
1.808
1.799
1.779
1.774
1.784
1.779
1.76
1.76
1.779
1.823
1.843
1.852
1.887
1.94
1.96
1.955
1.95
1.94
1.906
1.867
1.867
1.887
1.906
1.926
1.94
1.96
1.955
1.906
1.867
1.852
1.848
1.843
1.838
1.857
1.877
1.872
1.848
1.828
1.794
1.73
1.676
1.667
1.696
1.735
1.76
1.808
1.872
1.921
1.931
1.882
1.799
1.701
1.618
1.608
1.667
1.725
1.764
1.789
1.799
1.804
1.789
1.769
1.764
1.76
1.755
1.769
1.818
1.896
1.965
1.994
2.014
2.023
2.004
1.975
1.95
1.94
1.916
1.857
1.794
1.75
1.701
1.662
1.647
1.657
1.686
1.701
1.706
1.725
1.745
1.75
1.74
1.72
1.711
1.686
1.657
1.652
1.667
1.667
1.667
1.672
1.691
1.72
1.73
1.764
1.843
1.935
2.019
2.072
2.102
2.111
2.077
2.004
1.926
1.843
1.755
1.696
1.676
1.701
1.73
1.764
1.828
1.877
1.862
1.799
1.73
1.686
1.657
1.632
1.647
1.696
1.745
1.76
1.755
1.75
1.745
1.706
1.647
1.628
1.637
1.652
1.676
1.716
1.774
1.808
1.818
1.818
1.818
1.804
1.799
1.804
1.813
1.813
1.774
1.735
1.706
1.686
1.662
1.652
1.662
1.681
1.686
1.711
1.76
1.799
1.804
1.794
1.764
1.75
1.735
1.72
1.735
1.769
1.794
1.833
1.877
1.901
1.906
1.867
1.818
1.789
1.755
1.711
1.681
1.676
1.681
1.662
1.642
1.662
1.691
1.706
1.745
1.833
1.896
1.891
1.833
1.769
1.716
1.662
1.628
1.603
1.603
1.628
1.662
1.706
1.75
1.76
1.74
1.711
1.681
1.657
1.603
1.549
1.535
1.535
1.515
1.486
1.466
1.476
1.491
1.496
1.52
1.559
1.574
1.554
1.515
1.481
1.466
1.447
1.457
1.51
1.54
1.54
1.53
1.535
1.544
1.53
1.505
1.5
1.5
1.486
1.466
1.447
1.461
1.481
1.481
1.491
1.535
1.598
1.672
1.73
1.779
1.789
1.764
1.74
1.745
1.73
1.686
1.618
1.574
1.564
1.564
1.574
1.603
1.618
1.608
1.593
1.613
1.647
1.672
1.667
1.667
1.681
1.681
1.662
1.613
1.554
1.481
1.383
1.334
1.354
1.403
1.461
1.53
1.613
1.696
1.716
1.681
1.588
1.422
1.217
1.119
1.153
1.246
1.334
1.417
1.525
1.618
1.647
1.628
1.574
1.515
1.481
1.471
1.535
1.657
1.764
1.823
1.848
1.828
1.784
1.701
1.613
1.564
1.559
1.579
1.618
1.652
1.672
1.657
1.598
1.544
1.505
1.476
1.471
1.476
1.476
1.476
1.447
1.427
1.403
1.359
1.315
1.295
1.305
1.325
1.339
1.417
1.554
1.676
1.74
1.779
1.799
1.804
1.799
1.779
1.769
1.73
1.657
1.579
1.51
1.461
1.422
1.383
1.364
1.359
1.364
1.413
1.491
1.574
1.632
1.642
1.628
1.623
1.623
1.608
1.579
1.54
1.496
1.442
1.378
1.354
1.344
1.344
1.383
1.461
1.549
1.623
1.676
1.735
1.794
1.808
1.764
1.681
1.598
1.54
1.505
1.496
1.496
1.471
1.413
1.378
1.383
1.417
1.442
1.466
1.53
1.628
1.725
1.804
1.867
1.911
1.901
1.813
1.74
1.686
1.623
1.544
1.486
1.452
1.442
1.417
1.403
1.417
1.447
1.461
1.461
1.457
1.471
1.491
1.515
1.559
1.613
1.642
1.647
1.628
1.618
1.603
1.559
1.52
1.525
1.544
1.564
1.588
1.637
1.701
1.711
1.676
1.642
1.603
1.554
1.525
1.515
1.535
1.574
1.618
1.672
1.716
1.72
1.706
1.681
1.632
1.579
1.53
1.515
1.549
1.584
1.608
1.628
1.662
1.716
1.725
1.72
1.725
1.716
1.701
1.681
1.662
1.642
1.584
1.491
1.427
1.417
1.461
1.54
1.628
1.72
1.779
1.794
1.789
1.784
1.769
1.73
1.686
1.672
1.676
1.657
1.647
1.676
1.725
1.764
1.794
1.823
1.852
1.848
1.813
1.789
1.745
1.672
1.588
1.515
1.471
1.447
1.422
1.437
1.481
1.51
1.53
1.559
1.608
1.657
1.681
1.691
1.691
1.676
1.623
1.54
1.461
1.427
1.427
1.442
1.491
1.564
1.632
1.696
1.764
1.833
1.877
1.877
1.862
1.848
1.833
1.813
1.794
1.774
1.764
1.745
1.73
1.75
1.794
1.833
1.857
1.877
1.887
1.887
1.882
1.896
1.911
1.906
1.887
1.857
1.833
1.808
1.76
1.725
1.716
1.72
1.735
1.755
1.769
1.789
1.779
1.769
1.779
1.789
1.784
1.789
1.823
1.872
1.906
1.921
1.931
1.945
1.931
1.896
1.848
1.808
1.779
1.755
1.764
1.794
1.804
1.799
1.794
1.808
1.843
1.862
1.862
1.877
1.891
1.882
1.852
1.823
1.808
1.799
1.779
1.784
1.799
1.799
1.799
1.804
1.823
1.823
1.794
1.779
1.794
1.813
1.818
1.823
1.838
1.848
1.823
1.784
1.764
1.769
1.764
1.76
1.76
1.75
1.73
1.706
1.72
1.755
1.784
1.799
1.818
1.848
1.872
1.867
1.852
1.838
1.813
1.769
1.72
1.686
1.676
1.672
1.676
1.701
1.725
1.735
1.745
1.76
1.799
1.838
1.852
1.867
1.887
1.882
1.872
1.857
1.843
1.799
1.725
1.686
1.696
1.716
1.735
1.755
1.789
1.833
1.857
1.862
1.862
1.867
1.872
1.887
1.906
1.921
1.906
1.852
1.799
1.769
1.755
1.74
1.725
1.745
1.784
1.813
1.848
1.887
1.901
1.887
1.857
1.828
1.799
1.76
1.735
1.755
1.784
1.794
1.789
1.774
1.755
1.735
1.72
1.755
1.813
1.852
1.862
1.867
1.877
1.882
1.843
1.794
1.764
1.74
1.72
1.735
1.784
1.838
1.857
1.852
1.857
1.857
1.848
1.823
1.808
1.804
1.794
1.764
1.75
1.73
1.686
1.652
1.642
1.662
1.691
1.711
1.735
1.764
1.779
1.779
1.779
1.784
1.789
1.794
1.804
1.838
1.867
1.887
1.891
1.887
1.882
1.852
1.813
1.804
1.828
1.857
1.882
1.901
1.921
1.916
1.857
1.799
1.75
1.701
1.647
1.618
1.623
1.672
1.73
1.804
1.896
1.96
1.97
1.945
1.901
1.838
1.75
1.652
1.598
1.593
1.613
1.642
1.681
1.735
1.784
1.789
1.769
1.745
1.716
1.676
1.652
1.657
1.676
1.686
1.696
1.735
1.784
1.828
1.857
1.872
1.867
1.838
1.784
1.74
1.701
1.657
1.623
1.623
1.667
1.725
1.76
1.808
1.872
1.911
1.911
1.882
1.843
1.808
1.764
1.725
1.72
1.725
1.72
1.725
1.75
1.779
1.789
1.784
1.808
1.852
1.887
1.911
1.911
1.911
1.901
1.862
1.833
1.823
1.799
1.76
1.72
1.701
1.701
1.696
1.686
1.701
1.706
1.706
1.711
1.735
1.774
1.804
1.813
1.848
1.882
1.896
1.887
1.867
1.843
1.813
1.76
1.72
1.716
1.711
1.706
1.716
1.735
1.769
1.774
1.779
1.794
1.804
1.794
1.779
1.769
1.774
1.779
1.764
1.779
1.813
1.833
1.843
1.843
1.848
1.843
1.813
1.799
1.804
1.808
1.799
1.794
1.799
1.823
1.828
1.818
1.818
1.808
1.784
1.769
1.774
1.804
1.833
1.852
1.891
1.935
1.965
1.975
1.96
1.935
1.891
1.828
1.779
1.774
1.779
1.794
1.818
1.862
1.916
1.94
1.94
1.95
1.955
1.94
1.916
1.896
1.891
1.867
1.828
1.813
1.823
1.833
1.852
1.877
1.911
1.931
1.921
1.921
1.94
1.96
1.97
1.965
1.979
2.004
2.014
2.019
2.043
2.067
2.063
2.038
2.014
2.009
1.999
1.975
1.975
1.979
1.979
1.965
1.955
1.955
1.955
1.931
1.921
1.931
1.926
1.906
1.887
1.882
1.882
1.857
1.823
1.818
1.813
1.789
1.769
1.784
1.833
1.877
1.901
1.94
1.979
1.994
1.984
1.965
1.96
1.95
1.916
1.901
1.906
1.911
1.911
1.906
1.906
1.896
1.867
1.852
1.877
1.906
1.911
1.896
1.891
1.891
1.882
1.848
1.823
1.823
1.813
1.799
1.789
1.794
1.808
1.823
1.852
1.901
1.945
1.965
1.97
1.965
1.955
1.906
1.843
1.804
1.774
1.76
1.784
1.848
1.921
1.965
1.979
1.999
2.009
2.004
1.984
1.97
1.975
1.979
1.955
1.95
1.965
1.984
1.994
2.004
2.019
2.033
2.019
1.994
1.984
1.965
1.921
1.877
1.833
1.804
1.769
1.73
1.72
1.735
1.74
1.76
1.789
1.848
1.916
1.979
2.048
2.121
2.151
2.126
2.072
2.009
1.94
1.852
1.764
1.72
1.72
1.745
1.779
1.818
1.882
1.935
1.96
1.984
2.004
1.999
1.965
1.926
1.896
1.872
1.848
1.848
1.882
1.926
1.97
1.999
1.999
1.97
1.891
1.808
1.76
1.73
1.696
1.676
1.691
1.74
1.784
1.813
1.852
1.887
1.887
1.867
1.848
1.848
1.852
1.823
1.794
1.794
1.789
1.769
1.745
1.73
1.75
1.769
1.804
1.872
1.94
1.96
1.94
1.911
1.877
1.813
1.711
1.637
1.603
1.588
1.588
1.603
1.642
1.681
