Num1
1.74
1.725
1.735
1.769
1.764
1.74
1.745
1.755
1.745
1.716
1.706
1.72
1.72
1.686
1.667
1.686
1.701
1.686
1.676
1.681
1.696
1.667
1.647
1.652
1.667
1.652
1.628
1.628
1.647
1.637
1.613
1.613
1.632
1.632
1.628
1.628
1.657
1.667
1.637
1.618
1.623
1.623
1.608
1.598
1.618
1.642
1.632
1.632
1.657
1.676
1.662
1.642
1.637
1.652
1.647
1.618
1.618
1.637
1.637
1.628
1.628
1.652
1.657
1.632
1.623
1.642
1.642
1.628
1.618
1.632
1.647
1.628
1.613
1.628
1.647
1.647
1.642
1.647
1.667
1.657
1.628
1.628
1.642
1.637
1.618
1.618
1.637
1.647
1.628
1.637
1.676
1.701
1.691
1.676
1.676
1.686
1.662
1.642
1.652
1.667
1.657
1.642
1.642
1.657
1.642
1.618
1.632
1.662
1.681
1.676
1.686
1.706
1.706
1.672
1.652
1.667
1.676
1.662
1.652
1.667
1.691
1.672
1.662
1.681
1.701
1.696
1.681
1.686
1.711
1.701
1.676
1.681
1.701
1.701
1.686
1.686
1.711
1.72
1.696
1.691
1.716
1.72
1.706
1.691
1.691
1.696
1.667
1.637
1.642
1.647
1.632
1.618
1.628
1.657
1.657
1.637
1.647
1.672
1.672
1.662
1.662
1.672
1.667
1.628
1.618
1.637
1.642
1.637
1.632
1.647
1.662
1.642
1.628
1.642
1.652
1.642
1.623
1.623
1.647
1.642
1.618
1.628
1.652
1.662
1.667
1.681
1.725
1.76
1.76
1.784
1.833
1.877
1.901
1.931
1.979
2.028
2.033
2.023
2.028
2.019
1.965
1.882
1.799
1.73
1.642
1.554
1.525
1.525
1.525
1.52
1.54
1.588
1.628
1.618
1.628
1.647
1.657
1.642
1.623
1.632
1.642
1.618
1.603
1.623
1.642
1.642
1.628
1.632
1.662
1.652
1.628
1.637
1.657
1.657
1.637
1.632
1.652
1.662
1.637
1.632
1.652
1.667
1.652
1.647
1.672
1.696
1.676
1.657
1.667
1.681
1.676
1.662
1.667
1.691
1.686
1.657
1.667
1.691
1.691
1.676
1.667
1.686
1.696
1.667
1.662
1.691
1.711
1.701
1.691
1.711
1.725
1.706
1.686
1.701
1.725
1.72
1.706
1.716
1.74
1.73
1.696
1.701
1.725
1.73
1.716
1.716
1.74
1.75
1.725
1.72
1.75
1.764
1.755
1.745
1.76
1.779
1.75
1.725
1.74
1.755
1.75
1.73
1.74
1.769
1.764
1.745
1.75
1.774
1.779
1.764
1.755
1.774
1.774
1.745
1.735
1.75
1.755
1.735
1.72
1.73
1.745
1.725
1.706
1.72
1.74
1.725
1.706
1.706
1.72
1.706
1.667
1.667
1.686
1.686
1.667
1.657
1.676
1.681
1.652
1.637
1.652
1.662
1.657
1.657
1.672
1.696
1.676
1.662
1.672
1.676
1.657
1.637
1.632
1.652
1.642
1.623
1.632
1.657
1.662
1.647
1.637
1.652
1.657
1.628
1.623
1.647
1.662
1.647
1.642
1.657
1.681
1.657
1.628
1.637
1.647
1.637
1.618
1.623
1.642
1.637
1.613
1.618
1.647
1.652
1.642
1.637
1.657
1.667
1.637
1.628
1.652
1.662
1.652
1.642
1.657
1.676
1.657
1.637
1.647
1.657
1.647
1.637
1.647
1.672
1.667
1.637
1.647
1.672
1.672
1.657
1.642
1.657
1.662
1.632
1.628
1.652
1.672
1.662
1.652
1.667
1.686
1.662
1.637
1.652
1.667
1.662
1.642
1.647
1.676
1.681
1.657
1.672
1.696
1.701
1.681
1.672
1.691
1.696
1.662
1.657
1.681
1.701
1.696
1.691
1.706
1.73
1.711
1.691
1.701
1.711
1.696
1.676
1.676
1.696
1.691
1.667
1.676
1.701
1.701
1.681
1.676
1.691
1.691
1.657
1.642
1.657
1.657
1.642
1.628
1.637
1.652
1.632
1.618
1.632
1.652
1.647
1.637
1.642
1.662
1.657
1.628
1.628
1.647
1.642
1.623
1.613
1.637
1.647
1.618
1.613
1.632
1.647
1.642
1.632
1.652
1.676
1.667
1.662
1.691
1.73
1.745
1.75
1.774
1.823
1.848
1.852
1.901
1.975
2.023
2.043
2.058
2.072
2.058
1.984
1.916
1.852
1.764
1.667
1.579
1.54
1.53
1.491
1.476
1.51
1.559
1.584
1.598
1.632
1.672
1.676
1.642
1.642
1.657
1.647
1.628
1.623
1.647
1.657
1.628
1.623
1.652
1.667
1.657
1.642
1.652
1.672
1.652
1.632
1.647
1.667
1.657
1.642
1.642
1.662
1.657
1.632
1.642
1.667
1.667
1.657
1.657
1.686
1.701
1.672
1.667
1.686
1.696
1.686
1.672
1.691
1.706
1.681
1.652
1.662
1.686
1.686
1.676
1.686
1.72
1.72
1.701
1.706
1.73
1.735
1.72
1.716
1.735
1.74
1.716
1.716
1.745
1.75
1.74
1.73
1.755
1.784
1.764
1.75
1.755
1.764
1.745
1.725
1.725
1.745
1.74
1.725
1.745
1.779
1.789
1.769
1.76
1.774
1.774
1.735
1.72
1.745
1.76
1.755
1.75
1.764
1.784
1.76
1.735
1.75
1.769
1.76
1.745
1.75
1.774
1.76
1.73
1.73
1.745
1.745
1.73
1.73
1.76
1.774
1.745
1.74
1.755
1.75
1.716
1.686
1.691
1.701
1.672
1.652
1.676
1.706
1.706
1.696
1.701
1.716
1.691
1.647
1.632
1.642
1.637
1.618
1.618
1.647
1.657
1.637
1.632
1.657
1.662
1.642
1.628
1.642
1.662
1.642
1.628
1.647
1.667
1.657
1.637
1.642
1.662
1.657
1.637
1.647
1.676
1.681
1.662
1.657
1.672
1.672
1.637
1.632
1.657
1.672
1.662
1.652
1.672
1.686
1.667
1.642
1.652
1.667
1.662
1.642
1.647
1.667
1.657
1.628
1.632
1.652
1.652
1.637
1.632
1.657
1.662
1.632
1.623
1.647
1.657
1.647
1.637
1.652
1.672
1.652
1.637
1.652
1.667
1.662
1.652
1.657
1.672
1.657
1.628
1.632
1.657
1.662
1.647
1.642
1.667
1.676
1.647
1.647
1.667
1.672
1.647
1.628
1.637
1.667
1.662
1.647
1.667
1.686
1.676
1.667
1.676
1.696
1.691
1.662
1.672
1.701
1.711
1.701
1.696
1.72
1.72
1.691
1.681
1.701
1.706
1.686
1.667
1.681
1.696
1.672
1.652
1.667
1.676
1.667
1.647
1.647
1.667
1.657
1.618
1.613
1.632
1.637
1.623
1.628
1.657
1.667
1.632
1.623
1.647
1.662
1.642
1.628
1.632
1.647
1.623
1.608
1.628
1.642
1.628
1.603
1.603
1.628
1.623
1.593
1.598
1.623
1.628
1.618
1.613
1.637
1.647
1.628
1.632
1.672
1.706
1.72
1.74
1.784
1.838
1.852
1.882
1.945
2.014
2.063
2.077
2.102
2.126
2.092
2.014
1.95
1.872
1.769
1.657
1.574
1.544
1.525
1.486
1.486
1.53
1.574
1.593
1.618
1.652
1.681
1.657
1.637
1.657
1.672
1.662
1.642
1.647
1.667
1.657
1.632
1.637
1.657
1.657
1.647
1.647
1.667
1.676
1.642
1.642
1.672
1.691
1.672
1.657
1.667
1.691
1.672
1.647
1.662
1.681
1.681
1.667
1.676
1.706
1.696
1.667
1.672
1.691
1.691
1.672
1.672
1.701
1.711
1.691
1.686
1.711
1.725
1.716
1.706
1.72
1.735
1.711
1.686
1.701
1.716
1.711
1.701
1.711
1.735
1.73
1.711
1.72
1.745
1.745
1.73
1.72
1.74
1.745
1.716
1.711
1.735
1.75
1.74
1.73
1.745
1.764
1.745
1.725
1.74
1.76
1.755
1.74
1.745
1.769
1.76
1.73
1.74
1.764
1.769
1.755
1.76
1.784
1.799
1.769
1.755
1.774
1.784
1.774
1.764
1.784
1.799
1.779
1.76
1.769
1.784
1.769
1.75
1.74
1.75
1.73
1.701
1.701
1.72
1.716
1.696
1.686
1.706
1.711
1.681
1.676
1.696
1.701
1.681
1.657
1.662
1.681
1.657
1.637
1.652
1.667
1.662
1.647
1.657
1.686
1.672
1.642
1.642
1.667
1.667
1.652
1.652
1.672
1.676
1.647
1.642
1.662
1.672
1.657
1.642
1.652
1.672
1.652
1.632
1.642
1.662
1.657
1.632
1.637
1.662
1.652
1.623
1.632
1.657
1.657
1.642
1.642
1.662
1.667
1.632
1.623
1.642
1.657
1.652
1.642
1.657
1.676
1.652
1.632
1.642
1.662
1.652
1.632
1.642
1.676
1.676
1.657
1.672
1.696
1.691
1.667
1.652
1.662
1.657
1.623
1.618
1.642
1.657
1.657
1.652
1.672
1.696
1.676
1.657
1.667
1.681
1.672
1.652
1.657
1.681
1.676
1.642
1.647
1.662
1.657
1.642
1.642
1.672
1.686
1.657
1.652
1.681
1.691
1.686
1.676
1.691
1.716
1.691
1.672
1.681
1.696
1.686
1.662
1.667
1.691
1.691
1.667
1.686
1.72
1.73
1.716
1.706
1.72
1.725
1.691
1.686
1.706
1.716
1.701
1.686
1.706
1.72
1.691
1.667
1.676
1.696
1.686
1.672
1.672
1.701
1.691
1.662
1.662
1.686
1.691
1.681
1.676
1.691
1.691
1.657
1.642
1.657
1.657
1.637
1.623
1.637
1.657
1.632
1.613
1.628
1.652
1.647
1.628
1.632
1.652
1.647
1.628
1.637
1.662
1.662
1.647
1.642
1.667
1.686
1.667
1.672
1.711
1.74
1.755
1.779
1.833
1.901
1.931
1.97
2.038
2.102
2.121
2.116
2.111
2.111
2.048
1.945
1.857
1.789
1.706
1.618
1.559
1.549
1.54
1.505
1.51
1.554
1.584
1.598
1.603
1.628
1.652
1.637
1.628
1.642
1.667
1.657
1.642
1.647
1.667
1.652
1.618
1.623
1.642
1.647
1.632
1.628
1.647
1.662
1.642
1.637
1.662
1.676
1.667
1.657
1.672
1.686
1.662
1.642
1.657
1.676
1.676
1.667
1.676
1.706
1.701
1.676
1.681
1.706
1.706
1.681
1.672
1.686
1.696
1.662
1.662
1.691
1.706
1.691
1.681
1.701
1.72
1.701
1.676
1.691
1.706
1.706
1.691
1.696
1.716
1.711
1.686
1.696
1.725
1.735
1.72
1.72
1.745
1.755
1.725
1.711
1.725
1.725
1.711
1.701
1.72
1.745
1.725
1.711
1.735
1.76
1.755
1.735
1.74
1.764
1.75
1.716
1.716
1.74
1.745
1.73
1.725
1.745
1.755
1.73
1.73
1.755
1.774
1.764
1.755
1.769
1.784
1.755
1.73
1.73
1.735
1.716
1.691
1.691
1.72
1.716
1.691
1.711
1.74
1.74
1.72
1.711
1.72
1.711
1.662
1.637
1.647
1.647
1.632
1.623
1.642
1.672
1.657
1.642
1.667
1.681
1.672
1.652
1.652
1.676
1.667
1.637
1.642
1.662
1.652
1.628
1.623
1.652
1.657
1.628
1.623
1.652
1.667
1.657
1.652
1.662
1.681
1.652
1.628
1.642
1.657
1.652
1.637
1.647
1.676
1.676
1.647
1.657
1.676
1.681
1.662
1.652
1.667
1.667
1.632
1.623
1.642
1.652
1.642
1.632
1.647
1.662
1.642
1.623
1.642
1.657
1.652
1.637
1.647
1.676
1.672
1.647
1.652
1.676
1.676
1.662
1.652
1.672
1.672
1.642
1.637
1.667
1.681
1.676
1.667
1.681
1.706
1.681
1.652
1.662
1.676
1.667
1.647
1.652
1.686
1.686
1.662
1.667
1.691
1.686
1.667
1.667
1.686
1.691
1.667
1.662
1.686
1.696
1.686
1.676
1.691
1.711
1.691
1.681
1.701
1.725
1.72
1.701
1.701
1.72
1.711
1.681
1.691
1.716
1.72
1.706
1.706
1.725
1.735
1.701
1.686
1.696
1.696
1.676
1.657
1.662
1.672
1.652
1.632
1.652
1.672
1.667
1.652
1.652
1.667
1.652
1.613
1.613
1.632
1.632
1.628
1.632
1.667
1.691
1.667
1.667
1.691
1.701
1.676
1.652
1.657
1.672
1.642
1.623
1.647
1.676
1.672
1.652
1.657
1.686
1.686
1.667
1.686
1.72
1.74
1.745
1.764
1.813
1.857
1.867
1.906
1.975
2.023
2.038
2.048
2.067
2.063
1.994
1.901
1.833
1.755
1.657
1.569
1.525
1.52
1.496
1.471
1.491
1.549
1.588
1.618
1.642
1.686
1.701
1.672
1.662
1.681
1.691
1.672
1.652
1.657
1.667
1.642
1.623
1.642
1.662
1.657
1.642
1.647
1.676
1.672
1.642
1.647
1.672
1.672
1.652
1.647
1.672
1.681
1.652
1.642
1.667
1.681
1.672
1.662
1.676
1.701
1.681
1.667
1.686
1.711
1.706
1.691
1.701
1.725
1.716
1.681
1.676
1.696
1.691
1.672
1.662
1.686
1.701
1.686
1.686
1.716
1.73
1.72
1.711
1.73
1.75
1.725
1.711
1.725
1.74
1.73
1.711
1.711
1.73
1.716
1.696
1.716
1.76
1.774
1.764
1.764
1.779
1.784
1.75
1.735
1.745
1.745
1.73
1.716
1.735
1.76
1.74
1.72
1.74
1.76
1.755
1.74
1.75
1.769
1.76
1.735
1.74
1.76
1.76
1.745
1.74
1.764
1.769
1.74
1.725
1.74
1.74
1.72
1.706
1.72
1.735
1.711
1.686
1.701
1.716
1.706
1.691
1.691
1.711
1.691
1.657
1.652
1.672
1.667
1.647
1.642
1.667
1.672
1.637
1.623
1.647
1.662
1.647
1.632
1.642
1.662
1.642
1.628
1.647
1.667
1.662
1.647
1.652
1.676
1.672
1.647
1.647
1.667
1.662
1.642
1.628
1.647
1.652
1.618
1.613
1.632
1.637
1.623
1.613
1.628
1.652
1.637
1.623
1.642
1.662
1.662
1.652
1.667
1.696
1.691
1.667
1.672
1.696
1.701
1.681
1.676
1.691
1.691
1.657
1.647
1.672
1.676
1.657
1.642
1.652
1.667
1.642
1.623
1.642
1.662
1.662
1.652
1.667
1.701
1.691
1.667
1.672
1.691
1.686
1.657
1.642
1.657
1.662
1.628
1.623
1.652
1.676
1.676
1.676
1.701
1.72
1.696
1.667
1.676
1.681
1.662
1.637
1.642
1.676
1.681
1.667
1.681
1.706
1.706
1.681
1.662
1.672
1.672
1.642
1.652
1.701
1.72
1.706
1.686
1.696
1.706
1.672
1.642
1.652
1.672
1.676
1.676
1.701
1.74
1.745
1.72
1.72
1.735
1.735
1.72
1.72
1.75
1.76
1.725
1.711
1.725
1.735
1.716
1.686
1.681
1.676
1.642
1.608
1.618
1.642
1.647
1.652
1.672
1.701
1.691
1.657
1.647
1.652
1.647
1.632
1.628
1.652
1.662
1.637
1.632
1.642
1.632
1.603
1.569
1.579
1.598
1.584
1.574
1.603
1.637
1.642
1.642
1.657
1.691
1.696
1.676
1.691
1.72
1.73
1.73
1.75
1.804
1.857
1.887
1.94
2.019
2.077
2.087
2.082
2.072
2.043
1.945
1.843
1.76
1.686
1.603
1.535
1.505
1.515
1.505
1.496
1.525
1.569
1.598
1.603
1.613
1.637
1.637
1.598
1.579
1.593
1.598
1.588
1.579
1.598
1.623
1.608
1.598
1.618
1.632
1.623
1.603
1.603
1.623
1.613
1.584
1.593
1.623
1.632
1.628
1.623
1.647
1.657
1.623
1.613
1.623
1.623
1.593
1.574
1.584
1.608
1.593
1.579
1.598
1.623
1.628
1.623
1.642
1.681
1.686
1.662
1.672
1.696
1.691
1.662
1.637
1.637
1.637
1.613
1.618
1.652
1.672
1.667
1.657
1.672
1.691
1.662
1.632
1.637
1.642
1.637
1.628
1.642
1.667
1.647
1.608
1.618
1.652
1.676
1.686
1.706
1.75
1.774
1.75
1.74
1.75
1.74
1.711
1.686
1.696
1.72
1.706
1.686
1.706
1.72
1.716
1.691
1.696
1.725
1.725
1.701
1.706
1.72
1.711
1.686
1.672
1.686
1.681
1.628
1.593
1.593
1.603
1.618
1.628
1.657
1.681
1.672
1.681
1.72
1.75
1.735
1.696
1.667
1.667
1.652
1.623
1.628
1.647
1.652
1.632
1.637
1.667
1.676
1.647
1.632
1.642
1.642
1.632
1.623
1.632
1.632
1.584
1.544
1.54
1.559
1.564
1.564
1.588
1.618
1.613
1.588
1.593
1.603
1.579
1.54
1.515
1.54
1.574
1.593
1.647
1.73
1.779
1.794
1.774
1.769
1.745
1.676
1.603
1.579
1.574
1.564
1.549
1.564
1.598
1.588
1.554
1.549
1.559
1.54
1.515
1.515
1.544
1.574
1.569
1.584
1.628
1.657
1.657
1.662
1.691
1.72
1.711
1.701
1.716
1.716
1.681
1.642
1.632
1.652
1.647
1.628
1.642
1.696
1.73
1.745
1.76
1.779
1.769
1.716
1.667
1.647
1.628
1.598
1.584
1.608
1.642
1.642
1.647
1.681
1.696
1.667
1.623
1.608
1.623
1.613
1.598
1.623
1.676
1.701
1.706
1.716
1.75
1.76
1.73
1.716
1.73
1.73
1.72
1.711
1.73
1.745
1.706
1.667
1.672
1.691
1.686
1.672
1.676
1.696
1.691
1.672
1.691
1.72
1.735
1.72
1.711
1.716
1.701
1.652
1.623
1.628
1.632
1.618
1.613
1.637
1.676
1.676
1.667
1.676
1.676
1.647
1.618
1.608
1.628
1.623
1.603
1.623
1.657
1.672
1.657
1.652
1.672
1.681
1.642
1.632
1.652
1.652
1.637
1.608
1.603
1.613
1.588
1.569
1.588
1.613
1.628
1.632
1.662
1.711
1.725
1.72
1.75
1.808
1.857
1.887
1.935
2.009
2.063
2.063
2.072
2.087
2.058
1.994
1.901
1.828
1.75
1.637
1.544
1.505
1.496
1.486
1.481
1.5
1.549
1.574
1.579
1.613
1.647
1.657
1.642
1.647
1.667
1.676
1.647
1.637
1.657
1.662
1.647
1.632
1.637
1.657
1.637
1.628
1.657
1.691
1.686
1.662
1.667
1.686
1.672
1.632
1.623
1.637
1.637
1.623
1.628
1.657
1.672
1.647
1.647
1.667
1.681
1.662
1.642
1.662
1.686
1.676
1.662
1.681
1.691
1.681
1.662
1.662
1.686
1.681
1.652
1.662
1.696
1.716
1.711
1.716
1.735
1.74
1.711
1.72
1.755
1.774
1.75
1.716
1.716
1.72
1.691
1.662
1.676
1.696
1.706
1.711
1.74
1.779
1.779
1.745
1.74
1.75
1.745
1.725
1.73
1.76
1.779
1.755
1.75
1.769
1.779
1.769
1.774
1.808
1.843
1.823
1.799
1.794
1.789
1.769
1.75
1.755
1.784
1.784
1.764
1.779
1.804
1.794
1.764
1.725
1.711
1.681
1.632
1.623
1.652
1.681
1.691
1.686
1.691
1.696
1.662
1.647
1.662
1.686
1.686
1.681
1.716
1.784
1.828
1.843
1.872
1.891
1.877
1.818
1.755
1.716
1.667
1.588
1.54
1.53
1.52
1.5
1.486
1.491
1.515
1.515
1.53
1.588
1.652
1.691
1.711
1.73
1.764
1.764
1.75
1.774
1.813
1.828
1.838
1.852
1.877
1.872
1.808
1.769
1.75
1.72
1.686
1.672
1.696
1.725
1.696
1.652
1.637
1.628
1.598
1.569
1.564
1.588
1.598
1.603
1.642
1.701
1.73
1.74
1.75
1.779
1.779
1.745
1.73
1.735
1.74
1.711
1.681
1.681
1.696
1.676
1.662
1.686
1.716
1.725
1.725
1.74
1.764
1.755
1.72
1.711
1.725
1.716
1.696
1.686
1.72
1.764
1.779
1.804
1.843
1.848
1.813
1.779
1.76
1.75
1.711
1.681
1.691
1.711
1.72
1.716
1.725
1.745
1.725
1.686
1.686
1.716
1.725
1.725
1.735
1.769
1.784
1.76
1.75
1.769
1.784
1.779
1.784
1.808
1.833
1.813
1.789
1.799
1.813
1.808
1.789
1.789
1.808
1.784
1.75
1.75
1.774
1.784
1.779
1.774
1.779
1.779
1.76
1.764
1.789
1.789
1.76
1.73
1.725
1.73
1.696
1.676
1.691
1.706
1.706
1.696
1.716
1.745
1.735
1.701
1.696
1.716
1.711
1.691
1.686
1.716
1.73
1.711
1.701
1.725
1.735
1.725
1.711
1.74
1.784
1.789
1.794
1.838
1.887
1.911
1.926
1.955
1.999
2.009
1.984
1.984
1.989
1.97
1.931
1.896
1.867
1.818
1.73
1.676
1.652
1.632
1.598
1.574
1.588
1.623
1.618
1.618
1.647
1.667
1.652
1.628
1.628
1.657
1.652
1.632
1.647
1.681
1.696
1.686
1.686
1.701
1.701
1.662
1.652
1.672
1.686
1.681
1.672
1.691
1.711
1.696
1.681
1.706
1.725
1.725
1.706
1.711
1.725
1.711
1.672
1.667
1.701
1.73
1.735
1.74
1.76
1.755
1.716
1.691
1.696
1.691
1.672
1.662
1.681
1.716
1.711
1.706
1.725
1.74
1.725
1.696
1.691
1.706
1.701
1.672
1.672
1.691
1.696
1.686
1.681
1.696
1.701
1.667
1.662
1.696
1.711
1.706
1.701
1.711
1.72
1.691
1.672
1.691
1.725
1.74
1.75
1.779
1.823
1.833
1.804
1.804
1.804
1.784
1.75
1.735
1.755
1.774
1.76
1.755
1.769
1.764
1.74
1.711
1.716
1.725
1.701
1.681
1.701
1.725
1.725
1.706
1.706
1.72
1.711
1.676
1.681
1.706
1.711
1.696
1.691
1.711
1.716
1.686
1.676
1.691
1.701
1.686
1.672
1.676
1.691
1.662
1.628
1.628
1.632
1.618
1.598
1.598
1.613
1.593
1.559
1.564
1.588
1.603
1.603
1.613
1.642
1.657
1.632
1.623
1.628
1.618
1.593
1.569
1.579
1.608
1.598
1.598
1.632
1.667
1.667
1.647
1.647
1.667
1.652
1.618
1.618
1.637
1.637
1.623
1.623
1.642
1.652
1.623
1.608
1.628
1.632
1.618
1.598
1.613
1.628
1.608
1.588
1.603
1.618
1.613
1.598
1.603
1.623
1.613
1.584
1.588
1.618
1.618
1.603
1.603
1.628
1.642
1.618
1.608
1.623
1.632
1.623
1.613
1.632
1.652
1.632
1.613
1.623
1.637
1.632
1.613
1.613
1.632
1.632
1.608
1.613
1.637
1.642
1.632
1.628
1.652
1.667
1.647
1.652
1.676
1.691
1.681
1.676
1.686
1.696
1.667
1.652
1.672
1.696
1.696
1.681
1.686
1.706
1.691
1.662
1.662
1.686
1.691
1.681
1.686
1.711
1.72
1.691
1.676
1.691
1.691
1.662
1.642
1.642
1.657
1.623
1.593
1.598
1.608
1.603
1.584
1.593
1.628
1.642
1.637
1.657
1.691
1.701
1.686
1.667
1.672
1.662
1.613
1.593
1.603
1.608
1.593
1.588
1.608
1.632
1.623
1.608
1.628
1.652
1.647
1.628
1.628
1.647
1.637
1.613
1.632
1.676
1.701
1.706
1.73
1.804
1.867
1.882
1.911
1.96
1.994
2.004
1.994
1.989
1.97
1.896
1.823
1.784
1.735
1.657
1.574
1.525
1.515
1.491
1.452
1.452
1.486
1.515
1.535
1.564
1.613
1.637
1.623
1.618
1.642
1.647
1.632
1.613
1.618
1.618
1.603
1.608
1.642
1.676
1.672
1.647
1.652
1.672
1.652
1.618
1.613
1.632
1.637
1.628
1.632
1.657
1.662
1.628
1.618
1.637
1.652
1.647
1.637
1.647
1.667
1.642
1.618
1.628
1.642
1.632
1.618
1.623
1.662
1.667
1.642
1.647
1.667
1.667
1.657
1.657
1.691
1.711
1.691
1.686
1.701
1.701
1.686
1.667
1.676
1.691
1.672
1.657
1.676
1.701
1.711
1.716
1.725
1.75
1.74
1.716
1.73
1.764
1.774
1.75
1.735
1.755
1.764
1.735
1.73
1.745
1.75
1.735
1.725
1.75
1.774
1.755
1.73
1.74
1.76
1.755
1.735
1.735
1.764
1.76
1.735
1.74
1.764
1.764
1.75
1.74
1.76
1.76
1.725
1.716
1.73
1.74
1.73
1.72
1.74
1.769
1.75
1.73
1.735
1.735
1.716
1.681
1.662
1.657
1.637
1.603
1.618
1.647
1.662
1.657
1.657
1.681
1.691
1.652
1.637
1.652
1.657
1.642
1.628
1.647
1.672
1.652
1.632
1.642
1.652
1.647
1.623
1.623
1.652
1.657
1.647
1.652
1.672
1.672
1.662
1.662
1.676
1.672
1.628
1.613
1.628
1.637
1.628
1.623
1.637
1.662
1.642
1.628
1.647
1.667
1.662
1.642
1.652
1.676
1.672
1.647
1.657
1.686
1.686
1.667
1.657
1.672
1.672
1.642
1.632
1.657
1.667
1.662
1.652
1.672
1.691
1.681
1.667
1.686
1.706
1.696
1.672
1.667
1.691
1.686
1.657
1.662
1.686
1.691
1.676
1.672
1.686
1.686
1.642
1.623
1.642
1.652
1.642
1.637
1.657
1.681
1.667
1.652
1.672
1.691
1.691
1.676
1.686
1.711
1.701
1.672
1.667
1.686
1.691
1.676
1.676
1.706
1.725
1.701
1.701
1.725
1.735
1.73
1.72
1.74
1.76
1.74
1.711
1.716
1.72
1.701
1.676
1.676
1.696
1.691
1.672
1.681
1.711
1.716
1.691
1.676
1.681
1.672
1.632
1.618
1.637
1.652
1.652
1.647
1.667
1.691
1.667
1.647
1.657
1.667
1.652
1.623
1.618
1.632
1.623
1.598
1.603
1.628
1.632
1.618
1.618
1.652
1.667
1.637
1.632
1.657
1.676
1.676
1.667
1.691
1.73
1.73
1.735
1.774
1.818
1.838
1.857
1.896
1.96
1.999
2.009
2.043
2.077
2.072
2.033
1.975
1.931
1.857
1.74
1.647
1.603
1.564
1.53
1.515
1.54
1.569
1.559
1.554
1.584
1.618
1.618
1.598
1.603
1.628
1.623
1.593
1.598
1.628
1.632
1.618
1.608
1.628
1.632
1.603
1.593
1.618
1.632
1.628
1.618
1.632
1.652
1.632
1.613
1.628
1.647
1.647
1.632
1.642
1.672
1.672
1.652
1.662
1.686
1.701
1.691
1.686
1.706
1.716
1.691
1.686
1.706
1.716
1.701
1.681
1.691
1.706
1.681
1.657
1.672
1.691
1.686
1.672
1.681
1.711
1.706
1.667
1.657
1.672
1.662
1.642
1.642
1.667
1.681
1.667
1.676
1.711
1.735
1.735
1.72
1.73
1.755
1.735
1.711
1.725
1.75
1.75
1.735
1.74
1.764
1.755
1.725
1.73
1.764
1.774
1.764
1.755
1.774
1.779
1.745
1.725
1.735
1.735
1.716
1.706
1.72
1.745
1.73
1.711
1.725
1.745
1.74
1.725
1.73
1.755
1.745
1.711
1.706
1.72
1.716
1.701
1.701
1.725
1.735
1.706
1.691
1.706
1.701
1.681
1.662
1.667
1.681
1.667
1.662
1.686
1.706
1.701
1.676
1.672
1.681
1.662
1.623
1.613
1.628
1.623
1.603
1.598
1.618
1.632
1.608
1.613
1.642
1.662
1.652
1.642
1.652
1.667
1.642
1.613
1.628
1.647
1.637
1.618
1.618
1.637
1.632
1.608
1.613
1.642
1.657
1.642
1.642
1.662
1.672
1.632
1.623
1.642
1.652
1.642
1.637
1.662
1.686
1.667
1.647
1.657
1.672
1.657
1.628
1.618
1.637
1.628
1.593
1.598
1.632
1.652
1.652
1.657
1.681
1.691
1.662
1.647
1.662
1.667
1.647
1.632
1.642
1.667
1.652
1.632
1.647
1.662
1.657
1.642
1.637
1.662
1.652
1.618
1.618
1.642
1.652
1.652
1.667
1.701
1.72
1.691
1.676
1.686
1.681
1.647
1.613
1.613
1.632
1.623
1.618
1.647
1.686
1.691
1.691
1.706
1.74
1.735
1.696
1.686
1.701
1.696
1.672
1.657
1.672
1.681
1.657
1.652
1.681
1.701
1.691
1.681
1.696
1.716
1.696
1.681
1.696
1.711
1.701
1.672
1.667
1.681
1.672
1.637
1.637
1.662
1.662
1.647
1.642
1.662
1.667
1.632
1.618
1.637
1.647
1.637
1.623
1.637
1.657
1.637
1.618
1.637
1.657
1.652
1.637
1.637
1.662
1.662
1.632
1.632
1.647
1.652
1.632
1.632
1.662
1.676
1.657
1.667
1.716
1.76
1.779
1.789
1.823
1.872
1.882
1.896
1.94
1.979
1.994
1.989
1.984
1.984
1.94
1.857
1.789
1.735
1.662
1.584
1.535
1.52
1.515
1.491
1.496
1.544
1.584
1.603
1.623
1.662
1.696
1.681
1.657
1.667
1.676
1.667
1.642
1.642
1.662
1.657
1.632
1.637
1.652
1.647
1.628
1.618
1.642
1.652
1.628
1.623
1.647
1.662
1.662
1.647
1.652
1.667
1.642
1.623
1.637
1.662
1.662
1.652
1.657
1.681
1.681
1.657
1.667
1.691
1.696
1.676
1.667
1.686
1.696
1.667
1.652
1.672
1.686
1.676
1.667
1.681
1.696
1.676
1.662
1.681
1.706
1.706
1.696
1.706
1.735
1.73
1.696
1.696
1.711
1.706
1.691
1.686
1.711
1.725
1.696
1.691
1.716
1.73
1.72
1.701
1.711
1.73
1.716
1.701
1.716
1.745
1.75
1.74
1.74
1.764
1.755
1.725
1.725
1.745
1.75
1.74
1.735
1.755
1.76
1.725
1.716
1.735
1.75
1.74
1.74
1.755
1.779
1.76
1.735
1.735
1.74
1.72
1.691
1.681
1.701
1.696
1.662
1.657
1.672
1.672
1.652
1.637
1.657
1.667
1.642
1.642
1.662
1.676
1.662
1.647
1.657
1.667
1.642
1.613
1.618
1.642
1.642
1.632
1.637
1.657
1.647
1.613
1.608
1.628
1.632
1.623
1.623
1.652
1.672
1.652
1.652
1.672
1.676
1.652
1.628
1.632
1.647
1.623
1.598
1.613
1.642
1.637
1.628
1.628
1.642
1.637
1.608
1.613
1.632
1.632
1.613
1.613
1.637
1.647
1.623
1.618
1.637
1.647
1.632
1.618
1.628
1.647
1.628
1.603
1.613
1.632
1.632
1.632
1.647
1.681
1.672
1.632
1.632
1.657
1.667
1.652
1.642
1.667
1.681
1.662
1.657
1.676
1.691
1.672
1.647
1.657
1.672
1.652
1.632
1.647
1.662
1.657
1.637
1.642
1.667
1.662
1.632
1.637
1.657
1.667
1.657
1.652
1.681
1.696
1.676
1.676
1.701
1.711
1.696
1.676
1.686
1.711
1.696
1.686
1.701
1.725
1.72
1.706
1.716
1.74
1.725
1.686
1.672
1.681
1.681
1.662
1.647
1.657
1.657
1.628
1.618
1.637
1.647
1.632
1.623
1.637
1.662
1.642
1.623
1.642
1.657
1.652
1.632
1.628
1.642
1.637
1.608
1.608
1.628
1.637
1.628
1.628
1.647
1.657
1.628
1.613
1.628
1.628
1.613
1.603
1.628
1.667
1.672
1.672
1.711
1.76
1.779
1.779
1.799
1.843
1.867
1.872
1.906
1.96
1.989
1.989
1.984
1.979
1.955
1.872
1.789
1.735
1.672
1.593
1.53
1.515
1.525
1.51
1.5
1.53
1.584
1.613
1.623
1.642
1.672
1.662
1.632
1.632
1.657
1.657
1.632
1.613
1.628
1.642
1.623
1.613
1.637
1.652
1.647
1.642
1.657
1.681
1.662
1.637
1.647
1.667
1.662
1.642
1.632
1.652
1.652
1.628
1.632
1.662
1.672
1.657
1.657
1.681
1.696
1.667
1.652
1.667
1.676
1.672
1.662
1.676
1.701
1.686
1.667
1.681
1.696
1.691
1.676
1.686
1.711
1.711
1.676
1.676
1.696
1.706
1.696
1.696
1.72
1.73
1.696
1.686
1.711
1.725
1.716
1.706
1.716
1.73
1.711
1.691
1.706
1.725
1.725
1.711
1.716
1.74
1.74
1.716
1.72
1.75
1.75
1.73
1.716
1.73
1.735
1.711
1.706
1.73
1.745
1.735
1.72
1.725
1.75
1.73
1.711
1.72
1.735
1.73
1.725
1.735
1.764
1.764
1.73
1.725
1.74
1.735
1.716
1.701
1.72
1.725
1.701
1.686
1.701
1.711
1.691
1.676
1.681
1.696
1.672
1.647
1.662
1.681
1.676
1.657
1.652
1.672
1.657
1.623
1.628
1.652
1.657
1.647
1.642
1.667
1.672
1.632
1.608
1.613
1.623
1.623
1.613
1.632
1.667
1.662
1.652
1.667
1.681
1.662
1.632
1.623
1.642
1.637
1.618
1.628
1.657
1.662
1.647
1.642
1.667
1.676
1.637
1.623
1.642
1.657
1.642
1.628
1.637
1.657
1.637
1.618
1.628
1.652
1.647
1.632
1.637
1.667
1.662
1.632
1.632
1.662
1.672
1.662
1.652
1.662
1.676
1.652
1.642
1.662
1.667
1.647
1.632
1.652
1.672
1.657
1.632
1.652
1.681
1.681
1.667
1.667
1.686
1.681
1.647
1.642
1.657
1.657
1.637
1.632
1.652
1.667
1.647
1.647
1.672
1.691
1.686
1.681
1.696
1.711
1.681
1.647
1.652
1.676
1.676
1.672
1.686
1.725
1.73
1.701
1.711
1.73
1.73
1.706
1.691
1.706
1.72
1.696
1.696
1.72
1.735
1.72
1.701
1.701
1.716
1.686
1.652
1.652
1.667
1.657
1.642
1.642
1.667
1.667
1.637
1.647
1.676
1.681
1.662
1.652
1.672
1.676
1.647
1.628
1.637
1.642
1.632
1.628
1.652
1.681
1.672
1.652
1.667
1.681
1.672
1.647
1.637
1.652
1.647
1.623
1.628
1.652
1.667
1.657
1.657
1.676
1.696
1.681
1.691
1.73
1.774
1.799
1.823
1.877
1.94
1.965
1.975
2.009
2.033
2.028
1.994
1.965
1.94
1.867
1.76
1.686
1.637
1.584
1.53
1.491
1.505
1.525
1.525
1.54
1.588
1.637
1.662
1.676
1.701
1.73
1.701
1.672
1.672
1.681
1.662
1.632
1.628
1.652
1.657
1.637
1.642
1.667
1.672
1.657
1.642
1.657
1.662
1.632
1.628
1.657
1.676
1.672
1.657
1.672
1.696
1.681
1.657
1.662
1.681
1.676
1.657
1.657
1.681
1.681
1.662
1.667
1.696
1.706
1.691
1.681
1.701
1.711
1.686
1.672
1.686
1.696
1.681
1.667
1.686
1.716
1.716
1.706
1.725
1.75
1.75
1.74
1.735
1.745
1.725
1.676
1.667
1.691
1.701
1.696
1.696
1.725
1.74
1.716
1.706
1.725
1.735
1.73
1.716
1.725
1.75
1.735
1.716
1.725
1.75
1.75
1.74
1.75
1.774
1.769
1.735
1.73
1.75
1.755
1.74
1.73
1.75
1.764
1.745
1.735
1.755
1.755
1.73
1.706
1.72
1.76
1.76
1.74
1.76
1.784
1.779
1.76
1.745
1.745
1.716
1.662
1.642
1.657
1.657
1.652
1.652
1.681
1.696
1.672
1.657
1.667
1.672
1.657
1.637
1.642
1.667
1.652
1.628
1.647
1.672
1.672
1.652
1.647
1.662
1.647
1.608
1.603
1.623
1.623
1.608
1.613
1.657
1.686
1.667
1.662
1.686
1.706
1.691
1.667
1.667
1.672
1.642
1.613
1.623
1.642
1.642
1.632
1.637
1.662
1.662
1.642
1.657
1.681
1.686
1.676
1.662
1.676
1.681
1.647
1.623
1.642
1.647
1.637
1.628
1.642
1.672
1.662
1.642
1.652
1.667
1.662
1.637
1.632
1.652
1.652
1.628
1.632
1.662
1.672
1.662
1.662
1.686
1.696
1.662
1.647
1.662
1.672
1.657
1.647
1.662
1.686
1.676
1.662
1.676
1.696
1.686
1.672
1.667
1.681
1.662
1.623
1.618
1.642
1.662
1.657
1.657
1.676
1.696
1.672
1.672
1.691
1.706
1.686
1.667
1.681
1.701
1.691
1.667
1.681
1.701
1.701
1.691
1.696
1.716
1.711
1.681
1.681
1.711
1.72
1.72
1.716
1.73
1.74
1.711
1.701
1.716
1.72
1.706
1.686
1.696
1.711
1.686
1.652
1.657
1.672
1.667
1.647
1.647
1.676
1.676
1.647
1.647
1.662
1.662
1.642
1.628
1.647
1.662
1.632
1.628
1.652
1.667
1.657
1.647
1.657
1.676
1.662
1.637
1.647
1.662
1.647
1.623
1.618
1.642
1.642
1.618
1.632
1.672
1.701
1.716
1.74
1.784
1.818
1.818
1.838
1.887
1.94
1.975
1.999
2.033
2.063
2.048
1.999
1.96
1.921
1.848
1.755
1.676
1.637
1.593
1.535
1.52
1.535
1.544
1.54
1.549
1.588
1.628
1.628
1.632
1.662
1.681
1.676
1.662
1.672
1.691
1.676
1.647
1.652
1.667
1.667
1.652
1.652
1.672
1.672
1.637
1.632
1.662
1.672
1.657
1.657
1.681
1.696
1.667
1.657
1.686
1.706
1.701
1.686
1.696
1.716
1.696
1.667
1.672
1.681
1.672
1.647
1.642
1.672
1.681
1.667
1.676
1.711
1.725
1.716
1.706
1.72
1.725
1.696
1.676
1.691
1.706
1.696
1.686
1.701
1.72
1.701
1.681
1.696
1.72
1.72
1.706
1.706
1.73
1.73
1.701
1.711
1.74
1.75
1.735
1.73
1.755
1.769
1.74
1.72
1.735
1.745
1.74
1.73
1.745
1.774
1.764
1.74
1.75
1.769
1.76
1.735
1.725
1.75
1.745
1.716
1.716
1.745
1.76
1.75
1.75
1.769
1.779
1.75
1.73
1.745
1.755
1.74
1.72
1.72
1.74
1.72
1.696
1.711
1.735
1.735
1.716
1.706
1.725
1.716
1.681
1.667
1.681
1.681
1.657
1.642
1.662
1.681
1.662
1.647
1.662
1.676
1.662
1.647
1.652
1.676
1.662
1.637
1.647
1.662
1.657
1.647
1.647
1.672
1.672
1.637
1.637
1.657
1.667
1.652
1.642
1.662
1.672
1.647
1.632
1.652
1.672
1.662
1.652
1.667
1.686
1.672
1.642
1.657
1.681
1.676
1.657
1.657
1.681
1.676
1.642
1.642
1.662
1.667
1.652
1.642
1.662
1.672
1.642
1.628
1.647
1.662
1.652
1.637
1.642
1.657
1.642
1.613
1.618
1.637
1.642
1.637
1.647
1.676
1.681
1.652
1.652
1.672
1.676
1.652
1.642
1.662
1.686
1.667
1.657
1.681
1.701
1.696
1.681
1.691
1.716
1.701
1.676
1.686
1.701
1.691
1.657
1.647
1.667
1.662
1.628
1.623
1.647
1.667
1.662
1.662
1.681
1.696
1.662
1.647
1.667
1.681
1.681
1.662
1.672
1.691
1.676
1.647
1.662
1.681
1.686
1.676
1.681
1.706
1.706
1.676
1.676
1.696
1.701
1.681
1.672
1.701
1.73
1.72
1.72
1.745
1.755
1.74
1.716
1.711
1.72
1.701
1.667
1.672
1.691
1.686
1.667
1.657
1.667
1.667
1.637
1.632
1.657
1.667
1.662
1.662
1.691
1.706
1.676
1.657
1.667
1.676
1.667
1.647
1.647
1.662
1.642
1.613
1.623
1.642
1.647
1.632
1.637
1.667
1.667
1.642
1.642
1.657
1.662
1.647
1.642
1.662
1.686
1.672
1.681
1.72
1.76
1.769
1.774
1.804
1.857
1.877
1.891
1.94
2.004
2.033
2.033
2.033
2.033
1.994
1.901
1.828
1.764
1.686
1.603
1.54
1.525
1.53
1.505
1.51
1.554
1.598
1.618
1.628
1.652
1.676
1.662
1.628
1.628
1.642
1.637
1.618
1.623
1.657
1.667
1.647
1.647
1.676
1.681
1.667
1.662
1.681
1.701
1.672
1.657
1.676
1.691
1.686
1.667
1.672
1.691
1.672
1.637
1.647
1.667
1.667
1.652
1.652
1.676
1.686
1.657
1.657
1.681
1.691
1.681
1.676
1.701
1.716
1.691
1.672
1.686
1.701
1.686
1.667
1.676
1.696
1.681
1.662
1.676
1.701
1.706
1.686
1.686
1.711
1.72
1.701
1.711
1.74
1.75
1.74
1.735
1.75
1.76
1.725
1.701
1.711
1.725
1.716
1.711
1.72
1.745
1.735
1.711
1.72
1.735
1.735
1.72
1.72
1.745
1.755
1.73
1.725
1.745
1.755
1.74
1.73
1.745
1.755
1.725
1.711
1.725
1.745
1.745
1.735
1.745
1.764
1.745
1.716
1.72
1.74
1.73
1.701
1.701
1.725
1.735
1.711
1.706
1.73
1.74
1.72
1.701
1.706
1.711
1.676
1.652
1.657
1.667
1.657
1.647
1.662
1.686
1.672
1.647
1.652
1.662
1.652
1.628
1.623
1.642
1.647
1.623
1.628
1.657
1.672
1.662
1.647
1.662
1.676
1.652
1.637
1.652
1.662
1.652
1.632
1.637
1.657
1.647
1.628
1.637
1.662
1.662
1.652
1.647
1.667
1.667
1.637
1.628
1.647
1.657
1.647
1.647
1.667
1.681
1.657
1.642
1.657
1.672
1.662
1.642
1.652
1.672
1.657
1.628
1.632
1.657
1.652
1.637
1.637
1.662
1.667
1.637
1.632
1.652
1.657
1.642
1.628
1.647
1.667
1.647
1.637
1.662
1.686
1.681
1.667
1.676
1.691
1.672
1.637
1.647
1.667
1.667
1.652
1.652
1.681
1.686
1.662
1.657
1.681
1.691
1.676
1.662
1.676
1.691
1.662
1.647
1.667
1.681
1.667
1.647
1.652
1.672
1.662
1.632
1.642
1.667
1.676
1.662
1.662
1.686
1.691
1.657
1.647
1.672
1.676
1.667
1.667
1.691
1.716
1.696
1.681
1.701
1.72
1.711
1.696
1.701
1.725
1.716
1.691
1.701
1.72
1.716
1.696
1.691
1.711
1.711
1.676
1.667
1.686
1.686
1.667
1.647
1.657
1.667
1.647
1.637
1.657
1.676
1.662
1.642
1.652
1.676
1.667
1.642
1.642
1.662
1.667
1.662
1.662
1.676
1.672
1.632
1.613
1.628
1.632
1.628
1.628
1.652
1.676
1.652
1.637
1.657
1.676
1.672
1.662
1.681
1.72
1.725
1.725
1.76
1.808
1.852
1.877
1.921
1.984
2.023
2.014
2.019
2.038
2.023
1.965
1.891
1.823
1.76
1.667
1.588
1.564
1.549
1.525
1.505
1.52
1.564
1.579
1.579
1.608
1.652
1.667
1.662
1.662
1.681
1.676
1.647
1.642
1.662
1.667
1.657
1.647
1.667
1.681
1.652
1.632
1.642
1.657
1.647
1.637
1.652
1.681
1.676
1.652
1.662
1.681
1.681
1.662
1.652
1.676
1.686
1.662
1.667
1.691
1.701
1.686
1.676
1.686
1.696
1.672
1.667
1.691
1.716
1.711
1.696
1.701
1.716
1.706
1.676
1.681
1.701
1.701
1.691
1.691
1.72
1.725
1.696
1.691
1.706
1.711
1.696
1.691
1.72
1.745
1.72
1.711
1.725
1.74
1.735
1.72
1.725
1.75
1.74
1.716
1.72
1.74
1.74
1.73
1.735
1.76
1.76
1.73
1.725
1.75
1.76
1.745
1.735
1.75
1.769
1.75
1.735
1.75
1.76
1.75
1.73
1.74
1.764
1.755
1.735
1.74
1.755
1.75
1.725
1.716
1.73
1.725
1.696
1.696
1.72
1.735
1.72
1.701
1.711
1.72
1.691
1.667
1.676
1.691
1.681
1.667
1.672
1.691
1.676
1.647
1.652
1.667
1.667
1.652
1.652
1.681
1.691
1.657
1.652
1.681
1.686
1.672
1.652
1.662
1.672
1.642
1.623
1.632
1.642
1.637
1.632
1.647
1.681
1.676
1.647
1.657
1.676
1.672
1.647
1.637
1.647
1.647
1.618
1.613
1.632
1.647
1.642
1.632
1.652
1.672
1.642
1.623
1.642
1.662
1.657
1.647
1.652
1.681
1.672
1.642
1.647
1.667
1.667
1.647
1.637
1.657
1.667
1.642
1.637
1.662
1.672
1.667
1.667
1.691
1.716
1.686
1.662
1.676
1.686
1.667
1.637
1.632
1.657
1.652
1.637
1.652
1.681
1.686
1.672
1.667
1.681
1.676
1.642
1.632
1.657
1.667
1.657
1.647
1.662
1.681
1.657
1.637
1.657
1.676
1.672
1.657
1.662
1.681
1.672
1.647
1.657
1.681
1.691
1.691
1.696
1.73
1.74
1.711
1.701
1.716
1.72
1.706
1.701
1.72
1.75
1.73
1.711
1.72
1.725
1.711
1.686
1.686
1.701
1.681
1.647
1.652
1.676
1.676
1.652
1.642
1.657
1.657
1.623
1.623
1.647
1.662
1.652
1.637
1.647
1.662
1.632
1.608
1.623
1.642
1.637
1.628
1.642
1.672
1.667
1.632
1.628
1.642
1.637
1.623
1.618
1.642
1.657
1.632
1.642
1.676
1.701
1.701
1.701
1.725
1.755
1.745
1.745
1.774
1.813
1.833
1.848
1.891
1.955
1.984
1.984
2.004
2.023
2.004
1.95
1.887
1.833
1.75
1.642
1.569
1.549
1.535
1.51
1.5
1.525
1.569
1.579
1.593
1.637
1.667
1.667
1.652
1.657
1.681
1.676
1.647
1.647
1.657
1.657
1.652
1.652
1.681
1.696
1.672
1.662
1.686
1.691
1.672
1.652
1.662
1.676
1.647
1.632
1.652
1.676
1.676
1.662
1.667
1.691
1.676
1.647
1.652
1.676
1.676
1.667
1.672
1.696
1.706
1.681
1.672
1.691
1.696
1.686
1.676
1.691
1.701
1.676
1.662
1.686
1.706
1.706
1.691
1.701
1.725
1.716
1.686
1.696
1.73
1.745
1.735
1.735
1.75
1.75
1.711
1.696
1.706
1.701
1.686
1.672
1.691
1.716
1.706
1.701
1.725
1.75
1.745
1.725
1.73
1.755
1.75
1.72
1.725
1.745
1.74
1.72
1.716
1.735
1.745
1.72
1.72
1.745
1.75
1.735
1.725
1.735
1.75
1.725
1.706
1.72
1.74
1.73
1.716
1.72
1.75
1.745
1.716
1.72
1.735
1.735
1.716
1.696
1.711
1.706
1.667
1.647
1.667
1.672
1.662
1.647
1.662
1.681
1.657
1.637
1.652
1.667
1.662
1.647
1.657
1.681
1.672
1.637
1.637
1.652
1.642
1.623
1.623
1.642
1.652
1.628
1.623
1.647
1.657
1.642
1.628
1.637
1.647
1.623
1.603
1.632
1.662
1.662
1.657
1.662
1.691
1.691
1.657
1.657
1.667
1.657
1.637
1.623
1.642
1.647
1.618
1.618
1.642
1.657
1.652
1.647
1.667
1.691
1.667
1.647
1.662
1.676
1.667
1.647
1.647
1.662
1.652
1.628
1.637
1.662
1.667
1.652
1.652
1.676
1.681
1.647
1.637
1.667
1.686
1.681
1.672
1.686
1.706
1.676
1.657
1.672
1.686
1.681
1.676
1.691
1.716
1.701
1.662
1.657
1.667
1.657
1.637
1.632
1.657
1.676
1.662
1.667
1.696
1.711
1.696
1.686
1.701
1.716
1.696
1.681
1.701
1.72
1.716
1.701
1.711
1.73
1.72
1.696
1.706
1.725
1.72
1.701
1.691
1.711
1.716
1.676
1.667
1.691
1.701
1.686
1.662
1.657
1.662
1.632
1.613
1.628
1.647
1.647
1.637
1.647
1.681
1.676
1.647
1.647
1.662
1.657
1.637
1.628
1.647
1.652
1.628
1.623
1.647
1.657
1.642
1.632
1.652
1.676
1.657
1.637
1.652
1.676
1.686
1.686
1.711
1.755
1.764
1.755
1.784
1.838
1.877
1.901
1.931
1.989
2.023
2.009
2.004
1.999
1.965
1.896
1.818
1.76
1.706
1.618
1.544
1.525
1.525
1.515
1.505
1.53
1.579
1.598
1.593
1.618
1.652
1.662
1.647
1.637
1.652
1.657
1.628
1.618
1.642
1.657
1.647
1.637
1.647
1.667
1.647
1.628
1.647
1.667
1.657
1.637
1.642
1.667
1.657
1.637
1.652
1.686
1.696
1.681
1.672
1.681
1.686
1.657
1.657
1.676
1.681
1.667
1.657
1.676
1.696
1.676
1.652
1.662
1.681
1.681
1.672
1.686
1.711
1.706
1.672
1.672
1.691
1.691
1.676
1.676
1.696
1.706
1.681
1.681
1.701
1.711
1.706
1.696
1.706
1.725
1.706
1.691
1.711
1.73
1.73
1.72
1.735
1.764
1.764
1.73
1.73
1.745
1.74
1.725
1.72
1.745
1.755
1.73
1.72
1.735
1.745
1.73
1.711
1.73
1.755
1.74
1.72
1.74
1.76
1.755
1.73
1.73
1.74
1.725
1.696
1.701
1.725
1.73
1.72
1.716
1.735
1.74
1.706
1.696
1.711
1.716
1.696
1.686
1.696
1.711
1.686
1.662
1.676
1.691
1.681
1.662
1.662
1.686
1.676
1.642
1.647
1.672
1.681
1.662
1.652
1.667
1.667
1.637
1.628
1.652
1.667
1.652
1.647
1.662
1.681
1.657
1.632
1.642
1.652
1.642
1.613
1.613
1.628
1.623
1.598
1.608
1.637
1.642
1.632
1.628
1.657
1.672
1.642
1.632
1.647
1.657
1.642
1.632
1.647
1.672
1.652
1.628
1.637
1.652
1.647
1.632
1.637
1.667
1.662
1.637
1.642
1.676
1.686
1.676
1.667
1.681
1.686
1.647
1.632
1.652
1.662
1.657
1.642
1.657
1.676
1.657
1.637
1.652
1.662
1.652
1.637
1.637
1.657
1.657
1.637
1.647
1.676
1.686
1.672
1.672
1.701
1.716
1.686
1.676
1.696
1.711
1.696
1.681
1.691
1.706
1.691
1.676
1.696
1.725
1.72
1.701
1.716
1.75
1.745
1.711
1.706
1.716
1.711
1.691
1.686
1.706
1.711
1.676
1.662
1.686
1.696
1.681
1.657
1.657
1.667
1.642
1.623
1.642
1.657
1.652
1.637
1.647
1.672
1.672
1.642
1.647
1.667
1.667
1.652
1.642
1.657
1.667
1.637
1.632
1.662
1.681
1.672
1.662
1.667
1.681
1.652
1.623
1.632
1.657
1.667
1.672
1.701
1.755
1.784
1.789
1.818
1.867
1.896
1.911
1.935
1.979
2.014
1.999
1.984
1.984
1.955
1.887
1.808
1.75
1.691
1.603
1.53
1.515
1.52
1.525
1.52
1.549
1.593
1.613
1.608
1.623
1.657
1.662
1.647
1.642
1.662
1.667
1.637
1.632
1.652
1.667
1.652
1.637
1.652
1.672
1.647
1.628
1.637
1.652
1.652
1.637
1.642
1.672
1.667
1.642
1.652
1.676
1.681
1.672
1.662
1.676
1.681
1.647
1.637
1.662
1.676
1.667
1.657
1.667
1.691
1.676
1.657
1.672
1.691
1.691
1.676
1.681
1.711
1.706
1.676
1.676
1.691
1.691
1.676
1.667
1.691
1.706
1.686
1.676
1.701
1.711
1.701
1.691
1.706
1.725
1.706
1.681
1.701
1.72
1.72
1.701
1.701
1.725
1.725
1.696
1.696
1.725
1.74
1.735
1.735
1.75
1.76
1.73
1.716
1.735
1.74
1.725
1.711
1.72
1.74
1.725
1.706
1.725
1.745
1.745
1.725
1.73
1.75
1.735
1.701
1.701
1.72
1.725
1.706
1.696
1.72
1.73
1.701
1.686
1.706
1.706
1.691
1.672
1.686
1.706
1.686
1.662
1.676
1.696
1.691
1.672
1.672
1.691
1.686
1.652
1.647
1.667
1.662
1.642
1.628
1.642
1.642
1.613
1.608
1.632
1.652
1.647
1.637
1.647
1.667
1.642
1.618
1.623
1.642
1.637
1.623
1.628
1.652
1.657
1.628
1.632
1.657
1.662
1.642
1.632
1.647
1.662
1.632
1.623
1.642
1.657
1.652
1.642
1.657
1.676
1.652
1.628
1.647
1.667
1.667
1.657
1.662
1.686
1.681
1.647
1.637
1.652
1.652
1.632
1.623
1.642
1.657
1.637
1.637
1.667
1.676
1.667
1.647
1.657
1.681
1.662
1.642
1.662
1.681
1.676
1.662
1.662
1.681
1.676
1.647
1.647
1.672
1.676
1.667
1.667
1.691
1.711
1.686
1.676
1.696
1.711
1.706
1.696
1.711
1.73
1.711
1.686
1.701
1.716
1.706
1.681
1.676
1.691
1.681
1.652
1.657
1.681
1.686
1.672
1.662
1.676
1.681
1.642
1.618
1.632
1.642
1.632
1.628
1.647
1.676
1.662
1.637
1.652
1.667
1.657
1.632
1.628
1.647
1.647
1.628
1.632
1.657
1.662
1.642
1.632
1.652
1.662
1.637
1.637
1.672
1.706
1.716
1.72
1.755
1.804
1.818
1.833
1.877
1.935
1.965
1.975
1.989
2.014
1.989
1.916
1.857
1.804
1.735
1.647
1.579
1.549
1.535
1.5
1.5
1.535
1.569
1.584
1.598
1.632
1.662
1.647
1.623
1.632
1.647
1.647
1.628
1.632
1.662
1.662
1.632
1.632
1.657
1.662
1.647
1.642
1.662
1.676
1.642
1.628
1.647
1.657
1.647
1.632
1.642
1.667
1.657
1.637
1.657
1.681
1.686
1.672
1.676
1.696
1.691
1.662
1.657
1.676
1.681
1.662
1.652
1.672
1.681
1.662
1.662
1.691
1.716
1.711
1.701
1.706
1.725
1.706
1.686
1.701
1.72
1.711
1.691
1.686
1.706
1.706
1.672
1.667
1.681
1.686
1.676
1.686
1.72
1.745
1.725
1.711
1.735
1.745
1.735
1.716
1.72
1.735
1.716
1.696
1.711
1.735
1.735
1.72
1.725
1.755
1.75
1.716
1.716
1.735
1.74
1.73
1.725
1.745
1.76
1.73
1.72
1.74
1.755
1.74
1.725
1.735
1.75
1.735
1.711
1.72
1.74
1.725
1.706
1.706
1.725
1.72
1.691
1.691
1.706
1.711
1.691
1.676
1.686
1.691
1.652
1.637
1.657
1.672
1.657
1.642
1.657
1.676
1.657
1.628
1.632
1.652
1.647
1.632
1.637
1.657
1.652
1.623
1.623
1.642
1.647
1.632
1.632
1.657
1.681
1.652
1.637
1.647
1.652
1.632
1.608
1.618
1.642
1.632
1.618
1.637
1.662
1.667
1.657
1.667
1.686
1.681
1.642
1.637
1.652
1.652
1.632
1.623
1.632
1.642
1.623
1.618
1.647
1.667
1.667
1.657
1.662
1.681
1.662
1.637
1.647
1.662
1.652
1.637
1.647
1.672
1.672
1.642
1.647
1.672
1.681
1.672
1.667
1.691
1.706
1.676
1.667
1.686
1.701
1.691
1.672
1.681
1.701
1.686
1.662
1.672
1.701
1.706
1.701
1.706
1.735
1.735
1.701
1.696
1.716
1.711
1.691
1.676
1.686
1.701
1.676
1.667
1.681
1.691
1.676
1.657
1.657
1.667
1.642
1.618
1.628
1.647
1.647
1.637
1.642
1.672
1.672
1.642
1.632
1.647
1.652
1.637
1.623
1.642
1.657
1.637
1.632
1.647
1.662
1.652
1.632
1.637
1.657
1.637
1.618
1.632
1.662
1.672
1.676
1.696
1.735
1.755
1.735
1.755
1.804
1.838
1.862
1.891
1.95
1.999
1.999
1.989
1.999
1.984
1.926
1.848
1.779
1.716
1.628
1.544
1.51
1.505
1.496
1.491
1.515
1.569
1.598
1.593
1.618
1.662
1.676
1.667
1.647
1.647
1.647
1.618
1.603
1.628
1.647
1.647
1.642
1.662
1.691
1.681
1.657
1.662
1.676
1.672
1.657
1.652
1.676
1.676
1.647
1.642
1.667
1.672
1.652
1.642
1.662
1.676
1.652
1.642
1.662
1.676
1.672
1.657
1.672
1.696
1.686
1.667
1.676
1.696
1.691
1.681
1.681
1.706
1.711
1.681
1.686
1.711
1.72
1.711
1.696
1.711
1.72
1.701
1.691
1.711
1.73
1.735
1.73
1.745
1.774
1.755
1.72
1.72
1.725
1.711
1.686
1.681
1.701
1.706
1.686
1.701
1.745
1.769
1.764
1.755
1.769
1.779
1.745
1.72
1.735
1.74
1.73
1.716
1.73
1.764
1.755
1.73
1.74
1.755
1.75
1.73
1.725
1.745
1.74
1.711
1.711
1.73
1.735
1.73
1.725
1.745
1.755
1.725
1.711
1.73
1.745
1.725
1.701
1.691
1.706
1.686
1.662
1.672
1.691
1.686
1.662
1.657
1.676
1.667
1.632
1.623
1.637
1.642
1.632
1.628
1.652
1.672
1.647
1.632
1.647
1.662
1.652
1.637
1.647
1.672
1.657
1.632
1.642
1.662
1.657
1.637
1.632
1.652
1.652
1.618
1.618
1.642
1.652
1.637
1.628
1.647
1.667
1.642
1.628
1.647
1.667
1.662
1.657
1.667
1.686
1.667
1.637
1.647
1.667
1.662
1.642
1.637
1.652
1.657
1.628
1.632
1.662
1.672
1.657
1.657
1.681
1.701
1.672
1.652
1.667
1.672
1.657
1.642
1.652
1.681
1.667
1.637
1.647
1.672
1.672
1.657
1.657
1.676
1.676
1.647
1.647
1.672
1.681
1.667
1.652
1.667
1.681
1.662
1.652
1.681
1.706
1.711
1.701
1.72
1.745
1.725
1.696
1.696
1.711
1.706
1.681
1.681
1.711
1.72
1.696
1.696
1.716
1.72
1.706
1.691
1.706
1.716
1.681
1.657
1.667
1.681
1.672
1.652
1.652
1.667
1.647
1.623
1.632
1.662
1.657
1.637
1.632
1.652
1.657
1.623
1.618
1.637
1.647
1.637
1.632
1.652
1.672
1.647
1.632
1.647
1.657
1.652
1.642
1.647
1.662
1.642
1.618
1.632
1.652
1.662
1.662
1.686
1.735
1.76
1.755
1.774
1.818
1.848
1.862
1.877
1.921
1.965
1.965
1.96
1.979
1.979
1.931
1.867
1.808
1.76
1.672
1.584
1.535
1.525
1.51
1.496
1.505
1.554
1.584
1.584
1.608
1.647
1.672
1.672
1.667
1.676
1.686
1.652
1.632
1.642
1.657
1.647
1.632
1.642
1.672
1.667
1.647
1.657
1.676
1.662
1.637
1.632
1.657
1.662
1.632
1.637
1.662
1.676
1.672
1.662
1.676
1.691
1.667
1.647
1.667
1.681
1.672
1.657
1.672
1.706
1.701
1.676
1.686
1.711
1.711
1.691
1.686
1.706
1.706
1.681
1.681
1.711
1.73
1.72
1.711
1.72
1.725
1.701
1.686
1.706
1.725
1.716
1.706
1.716
1.74
1.73
1.706
1.716
1.735
1.735
1.725
1.73
1.755
1.76
1.725
1.725
1.745
1.75
1.735
1.72
1.735
1.755
1.73
1.72
1.735
1.755
1.75
1.74
1.75
1.774
1.76
1.73
1.74
1.764
1.764
1.75
1.745
1.769
1.774
1.745
1.74
1.75
1.75
1.735
1.72
1.735
1.75
1.72
1.701
1.716
1.735
1.73
1.716
1.72
1.74
1.72
1.686
1.686
1.701
1.691
1.672
1.667
1.681
1.681
1.652
1.647
1.667
1.672
1.652
1.632
1.642
1.662
1.642
1.623
1.637
1.647
1.637
1.623
1.628
1.657
1.647
1.623
1.632
1.652
1.652
1.642
1.642
1.662
1.662
1.632
1.632
1.657
1.667
1.652
1.642
1.657
1.672
1.642
1.623
1.642
1.652
1.647
1.642
1.647
1.662
1.642
1.618
1.628
1.657
1.667
1.662
1.672
1.696
1.701
1.672
1.662
1.672
1.672
1.647
1.632
1.647
1.676
1.652
1.637
1.657
1.672
1.662
1.647
1.657
1.686
1.676
1.652
1.657
1.676
1.676
1.662
1.662
1.681
1.686
1.662
1.662
1.691
1.706
1.696
1.681
1.691
1.711
1.691
1.681
1.706
1.72
1.711
1.691
1.691
1.711
1.696
1.667
1.676
1.701
1.711
1.701
1.701
1.725
1.735
1.701
1.686
1.691
1.681
1.662
1.642
1.647
1.657
1.632
1.613
1.628
1.652
1.652
1.642
1.652
1.672
1.652
1.618
1.618
1.637
1.637
1.623
1.618
1.642
1.652
1.628
1.628
1.647
1.657
1.642
1.632
1.647
1.662
1.642
1.623
1.642
1.662
1.657
1.642
1.657
1.691
1.696
1.686
1.706
1.74
1.76
1.76
1.774
1.823
1.857
1.857
1.891
1.945
1.979
1.979
1.97
1.97
1.955
1.882
1.799
1.74
1.681
1.608
1.54
1.505
1.505
1.496
1.486
1.515
1.564
1.593
1.603
1.623
1.657
1.667
1.637
1.628
1.647
1.657
1.647
1.642
1.662
1.681
1.657
1.637
1.652
1.667
1.657
1.637
1.642
1.657
1.647
1.623
1.637
1.667
1.672
1.657
1.657
1.681
1.691
1.662
1.652
1.672
1.681
1.667
1.657
1.672
1.691
1.662
1.642
1.657
1.681
1.681
1.672
1.686
1.716
1.706
1.676
1.686
1.711
1.711
1.686
1.681
1.706
1.716
1.686
1.681
1.706
1.72
1.711
1.696
1.711
1.725
1.701
1.681
1.701
1.716
1.711
1.696
1.706
1.74
1.735
1.706
1.716
1.735
1.735
1.72
1.72
1.745
1.75
1.72
1.72
1.745
1.76
1.75
1.74
1.755
1.769
1.745
1.716
1.72
1.73
1.725
1.716
1.72
1.74
1.735
1.716
1.73
1.76
1.76
1.74
1.735
1.755
1.755
1.725
1.711
1.73
1.73
1.711
1.691
1.696
1.711
1.681
1.657
1.676
1.696
1.691
1.676
1.686
1.706
1.691
1.652
1.647
1.667
1.667
1.647
1.642
1.662
1.672
1.637
1.628
1.647
1.657
1.647
1.637
1.652
1.676
1.657
1.637
1.657
1.672
1.667
1.642
1.637
1.662
1.657
1.628
1.628
1.647
1.657
1.647
1.637
1.657
1.662
1.632
1.628
1.647
1.652
1.637
1.623
1.642
1.672
1.652
1.632
1.652
1.672
1.672
1.662
1.667
1.686
1.676
1.652
1.657
1.676
1.672
1.647
1.637
1.652
1.657
1.623
1.618
1.642
1.662
1.662
1.657
1.681
1.701
1.681
1.657
1.662
1.672
1.667
1.647
1.657
1.686
1.686
1.657
1.662
1.691
1.691
1.672
1.657
1.672
1.676
1.647
1.642
1.667
1.691
1.691
1.691
1.711
1.725
1.701
1.672
1.681
1.686
1.676
1.662
1.676
1.706
1.706
1.681
1.691
1.711
1.711
1.686
1.672
1.696
1.706
1.681
1.686
1.716
1.73
1.72
1.706
1.72
1.735
1.706
1.676
1.681
1.691
1.676
1.652
1.647
1.667
1.657
1.628
1.637
1.672
1.676
1.667
1.657
1.672
1.672
1.637
1.628
1.642
1.652
1.642
1.632
1.647
1.667
1.642
1.618
1.632
1.647
1.642
1.632
1.647
1.672
1.662
1.632
1.628
1.647
1.647
1.632
1.642
1.686
1.725
1.72
1.74
1.789
1.828
1.843
1.857
1.906
1.96
1.979
1.989
2.019
2.038
2.019
1.97
1.916
1.862
1.769
1.657
1.584
1.554
1.53
1.5
1.496
1.535
1.569
1.569
1.584
1.632
1.662
1.662
1.652
1.662
1.672
1.642
1.618
1.628
1.642
1.632
1.613
1.618
1.647
1.657
1.632
1.637
1.662
1.667
1.657
1.657
1.672
1.672
1.637
1.623
1.647
1.662
1.657
1.647
1.672
1.701
1.696
1.686
1.701
1.72
1.706
1.686
1.681
1.696
1.681
1.642
1.642
1.667
1.672
1.662
1.657
1.681
1.696
1.676
1.667
1.691
1.706
1.696
1.681
1.696
1.72
1.706
1.686
1.706
1.72
1.716
1.701
1.696
1.711
1.701
1.667
1.667
1.696
1.706
1.696
1.696
1.716
1.73
1.706
1.696
1.72
1.74
1.735
1.73
1.75
1.774
1.76
1.73
1.735
1.75
1.735
1.725
1.735
1.764
1.76
1.735
1.74
1.764
1.769
1.75
1.735
1.74
1.745
1.72
1.716
1.74
1.755
1.75
1.735
1.745
1.76
1.72
1.686
1.691
1.701
1.686
1.662
1.667
1.701
1.701
1.676
1.672
1.686
1.686
1.667
1.657
1.667
1.676
1.642
1.637
1.652
1.667
1.657
1.647
1.657
1.681
1.657
1.628
1.632
1.647
1.642
1.628
1.628
1.652
1.652
1.623
1.632
1.662
1.672
1.657
1.642
1.657
1.662
1.632
1.618
1.637
1.647
1.637
1.628
1.642
1.662
1.642
1.618
1.632
1.652
1.647
1.628
1.623
1.642
1.642
1.613
1.618
1.647
1.652
1.642
1.632
1.657
1.667
1.637
1.628
1.647
1.662
1.657
1.652
1.672
1.696
1.676
1.647
1.652
1.662
1.642
1.623
1.623
1.647
1.647
1.623
1.628
1.657
1.662
1.657
1.647
1.672
1.691
1.662
1.652
1.672
1.686
1.676
1.662
1.667
1.686
1.662
1.637
1.652
1.667
1.657
1.642
1.642
1.667
1.667
1.642
1.647
1.676
1.686
1.676
1.662
1.681
1.681
1.647
1.637
1.657
1.672
1.667
1.657
1.672
1.691
1.672
1.652
1.667
1.691
1.696
1.686
1.696
1.725
1.73
1.701
1.701
1.716
1.711
1.686
1.681
1.706
1.725
1.696
1.676
1.691
1.701
1.686
1.672
1.672
1.691
1.667
1.632
1.642
1.652
1.642
1.628
1.628
1.652
1.652
1.628
1.642
1.672
1.672
1.652
1.642
1.652
1.657
1.623
1.613
1.637
1.657
1.642
1.632
1.647
1.667
1.652
1.628
1.632
1.652
1.652
1.647
1.657
1.681
1.686
1.667
1.681
1.725
1.745
1.745
1.755
1.794
1.838
1.848
1.887
1.955
2.014
2.038
2.043
2.048
2.038
1.975
1.882
1.804
1.73
1.642
1.559
1.52
1.52
1.51
1.491
1.51
1.564
1.608
1.623
1.637
1.667
1.681
1.652
1.637
1.647
1.662
1.642
1.628
1.632
1.657
1.642
1.623
1.637
1.662
1.657
1.642
1.652
1.676
1.672
1.637
1.628
1.642
1.642
1.628
1.623
1.647
1.676
1.657
1.652
1.676
1.691
1.676
1.657
1.662
1.676
1.662
1.637
1.652
1.672
1.672
1.657
1.667
1.701
1.706
1.676
1.676
1.691
1.701
1.696
1.686
1.696
1.706
1.681
1.672
1.696
1.711
1.701
1.686
1.701
1.72
1.706
1.681
1.696
1.72
1.72
1.701
1.701
1.725
1.72
1.691
1.691
1.72
1.725
1.716
1.706
1.725
1.74
1.716
1.711
1.73
1.745
1.735
1.72
1.735
1.755
1.74
1.711
1.72
1.745
1.75
1.74
1.74
1.764
1.764
1.735
1.73
1.76
1.764
1.74
1.725
1.745
1.764
1.745
1.72
1.735
1.74
1.73
1.711
1.711
1.725
1.701
1.672
1.681
1.701
1.696
1.681
1.681
1.701
1.696
1.657
1.647
1.662
1.657
1.637
1.632
1.657
1.676
1.652
1.642
1.662
1.676
1.662
1.637
1.637
1.657
1.642
1.618
1.632
1.662
1.662
1.652
1.657
1.676
1.672
1.637
1.632
1.647
1.657
1.647
1.637
1.647
1.657
1.628
1.608
1.628
1.642
1.637
1.623
1.628
1.647
1.628
1.608
1.618
1.642
1.642
1.637
1.642
1.676
1.686
1.657
1.657
1.672
1.672
1.647
1.637
1.652
1.672
1.647
1.632
1.652
1.667
1.657
1.642
1.652
1.672
1.652
1.628
1.642
1.667
1.672
1.662
1.667
1.686
1.681
1.647
1.637
1.657
1.662
1.647
1.642
1.662
1.672
1.647
1.632
1.652
1.667
1.652
1.632
1.637
1.662
1.652
1.632
1.647
1.667
1.662
1.642
1.642
1.667
1.672
1.647
1.647
1.667
1.676
1.667
1.662
1.681
1.696
1.667
1.647
1.662
1.672
1.662
1.647
1.652
1.672
1.667
1.657
1.681
1.711
1.706
1.676
1.667
1.686
1.676
1.637
1.628
1.647
1.662
1.662
1.667
1.691
1.711
1.681
1.662
1.676
1.691
1.686
1.676
1.691
1.72
1.711
1.686
1.696
1.711
1.711
1.686
1.681
1.701
1.696
1.657
1.652
1.672
1.681
1.667
1.657
1.676
1.696
1.672
1.657
1.672
1.681
1.667
1.642
1.642
1.662
1.657
1.637
1.647
1.672
1.657
1.637
1.642
1.672
1.676
1.647
1.637
1.657
1.662
1.647
1.628
1.637
1.652
1.623
1.608
1.632
1.652
1.652
1.647
1.667
1.701
1.701
1.691
1.72
1.764
1.794
1.808
1.843
1.901
1.94
1.945
1.975
2.023
2.048
2.038
1.999
1.97
1.921
1.818
1.716
1.652
1.603
1.549
1.51
1.51
1.544
1.554
1.549
1.584
1.628
1.642
1.632
1.642
1.672
1.672
1.632
1.623
1.642
1.657
1.652
1.647
1.662
1.676
1.652
1.632
1.647
1.662
1.652
1.632
1.642
1.667
1.662
1.637
1.652
1.676
1.676
1.657
1.652
1.676
1.681
1.657
1.662
1.691
1.701
1.691
1.681
1.691
1.701
1.667
1.642
1.662
1.676
1.672
1.662
1.676
1.701
1.701
1.681
1.691
1.711
1.711
1.691
1.686
1.716
1.72
1.691
1.681
1.706
1.72
1.706
1.701
1.716
1.73
1.701
1.676
1.696
1.716
1.711
1.701
1.711
1.74
1.735
1.711
1.716
1.74
1.745
1.73
1.725
1.75
1.75
1.725
1.72
1.74
1.745
1.735
1.72
1.74
1.76
1.74
1.725
1.74
1.76
1.75
1.735
1.745
1.774
1.764
1.74
1.75
1.769
1.769
1.755
1.745
1.764
1.764
1.73
1.72
1.74
1.745
1.735
1.72
1.735
1.745
1.716
1.691
1.706
1.72
1.711
1.686
1.681
1.691
1.667
1.632
1.632
1.652
1.652
1.642
1.642
1.672
1.686
1.657
1.652
1.672
1.676
1.662
1.647
1.657
1.676
1.647
1.628
1.642
1.662
1.652
1.637
1.642
1.667
1.657
1.632
1.642
1.672
1.676
1.662
1.652
1.667
1.667
1.628
1.618
1.642
1.657
1.647
1.642
1.657
1.681
1.657
1.632
1.637
1.652
1.637
1.618
1.628
1.657
1.662
1.637
1.642
1.662
1.662
1.647
1.642
1.667
1.676
1.647
1.642
1.667
1.676
1.657
1.642
1.657
1.676
1.657
1.642
1.662
1.686
1.686
1.667
1.672
1.686
1.667
1.628
1.628
1.652
1.657
1.647
1.652
1.681
1.691
1.657
1.637
1.647
1.657
1.642
1.637
1.657
1.686
1.672
1.667
1.691
1.711
1.696
1.667
1.657
1.667
1.657
1.628
1.637
1.667
1.672
1.662
1.662
1.681
1.686
1.657
1.652
1.667
1.676
1.662
1.657
1.672
1.696
1.667
1.642
1.652
1.672
1.667
1.652
1.657
1.681
1.686
1.662
1.676
1.696
1.696
1.672
1.662
1.672
1.672
1.642
1.632
1.647
1.657
1.657
1.652
1.676
1.701
1.676
1.657
1.672
1.686
1.676
1.662
1.672
1.696
1.686
1.662
1.672
1.701
1.706
1.691
1.686
1.706
1.711
1.691
1.691
1.711
1.72
1.711
1.701
1.716
1.735
1.716
1.696
1.706
1.716
1.706
1.686
1.681
1.691
1.672
1.642
1.642
1.672
1.676
1.662
1.657
1.681
1.691
1.652
1.637
1.652
1.662
1.647
1.637
1.647
1.672
1.652
1.632
1.647
1.662
1.657
1.637
1.637
1.667
1.657
1.628
1.632
1.652
1.662
1.647
1.647
1.676
1.691
1.676
1.681
1.72
1.745
1.75
1.755
1.794
1.843
1.852
1.867
1.926
1.989
2.023
2.038
2.053
2.063
2.028
1.95
1.882
1.818
1.73
1.642
1.574
1.544
1.53
1.491
1.491
1.53
1.574
1.588
1.608
1.642
1.681
1.662
1.642
1.657
1.681
1.676
1.652
1.657
1.676
1.672
1.642
1.647
1.672
1.672
1.657
1.652
1.672
1.672
1.637
1.623
1.647
1.657
1.647
1.637
1.662
1.696
1.681
1.662
1.676
1.696
1.691
1.672
1.672
1.691
1.696
1.676
1.691
1.72
1.72
1.701
1.696
1.711
1.711
1.676
1.662
1.681
1.696
1.691
1.686
1.701
1.725
1.701
1.681
1.691
1.706
1.701
1.686
1.696
1.725
1.72
1.696
1.701
1.73
1.735
1.725
1.716
1.735
1.745
1.716
1.701
1.72
1.73
1.716
1.701
1.711
1.735
1.72
1.711
1.73
1.755
1.76
1.75
1.764
1.794
1.789
1.76
1.76
1.784
1.789
1.769
1.76
1.774
1.774
1.75
1.735
1.755
1.764
1.755
1.75
1.764
1.784
1.764
1.74
1.75
1.755
1.74
1.72
1.716
1.735
1.73
1.701
1.706
1.725
1.73
1.716
1.701
1.711
1.716
1.681
1.667
1.686
1.696
1.676
1.662
1.667
1.686
1.662
1.637
1.647
1.667
1.667
1.652
1.657
1.681
1.676
1.647
1.647
1.662
1.662
1.642
1.632
1.652
1.676
1.657
1.657
1.676
1.686
1.672
1.657
1.667
1.681
1.652
1.623
1.637
1.662
1.662
1.647
1.647
1.667
1.657
1.623
1.623
1.642
1.647
1.637
1.637
1.657
1.662
1.632
1.623
1.647
1.667
1.667
1.662
1.681
1.711
1.691
1.667
1.672
1.676
1.662
1.642
1.647
1.676
1.681
1.657
1.657
1.681
1.681
1.657
1.642
1.657
1.667
1.642
1.632
1.667
1.701
1.711
1.711
1.72
1.73
1.701
1.672
1.676
1.686
1.672
1.642
1.637
1.662
1.662
1.637
1.647
1.681
1.691
1.681
1.676
1.691
1.701
1.672
1.652
1.662
1.667
1.652
1.642
1.657
1.686
1.676
1.652
1.667
1.686
1.676
1.652
1.652
1.676
1.676
1.647
1.652
1.676
1.686
1.672
1.672
1.686
1.696
1.667
1.657
1.686
1.706
1.701
1.686
1.691
1.711
1.686
1.657
1.657
1.676
1.681
1.676
1.691
1.725
1.735
1.706
1.706
1.725
1.725
1.706
1.691
1.711
1.73
1.706
1.696
1.716
1.725
1.701
1.667
1.667
1.681
1.662
1.637
1.652
1.681
1.686
1.676
1.676
1.701
1.696
1.657
1.652
1.672
1.681
1.676
1.672
1.691
1.701
1.672
1.652
1.652
1.657
1.647
1.642
1.657
1.686
1.667
1.647
1.667
1.686
1.676
1.652
1.652
1.672
1.672
1.652
1.667
1.706
1.73
1.74
1.75
1.789
1.823
1.823
1.852
1.911
1.96
1.979
1.984
2.004
2.014
1.975
1.901
1.852
1.804
1.73
1.647
1.598
1.584
1.554
1.51
1.51
1.549
1.569
1.579
1.598
1.647
1.681
1.667
1.662
1.681
1.696
1.681
1.667
1.676
1.696
1.681
1.657
1.672
1.696
1.691
1.676
1.667
1.686
1.676
1.637
1.632
1.657
1.667
1.662
1.662
1.691
1.711
1.691
1.676
1.696
1.701
1.686
1.662
1.672
1.691
1.676
1.657
1.676
1.701
1.706
1.691
1.691
1.716
1.72
1.696
1.691
1.711
1.716
1.701
1.691
1.716
1.73
1.696
1.681
1.701
1.716
1.711
1.701
1.716
1.75
1.74
1.725
1.74
1.764
1.76
1.735
1.73
1.745
1.74
1.711
1.706
1.73
1.745
1.735
1.73
1.75
1.769
1.74
1.73
1.75
1.764
1.75
1.735
1.74
1.764
1.745
1.725
1.74
1.769
1.774
1.76
1.76
1.779
1.779
1.745
1.745
1.769
1.779
1.769
1.764
1.784
1.799
1.769
1.745
1.755
1.76
1.745
1.73
1.74
1.764
1.745
1.716
1.72
1.735
1.725
1.696
1.691
1.711
1.706
1.672
1.676
1.701
1.711
1.696
1.681
1.691
1.691
1.652
1.628
1.637
1.652
1.642
1.628
1.637
1.662
1.652
1.628
1.637
1.667
1.672
1.657
1.657
1.681
1.686
1.652
1.647
1.657
1.657
1.632
1.623
1.642
1.657
1.637
1.628
1.647
1.667
1.662
1.642
1.652
1.672
1.652
1.628
1.637
1.667
1.676
1.672
1.676
1.696
1.696
1.652
1.637
1.647
1.647
1.628
1.618
1.637
1.662
1.642
1.632
1.652
1.667
1.662
1.642
1.647
1.672
1.667
1.652
1.667
1.691
1.696
1.672
1.662
1.681
1.676
1.642
1.637
1.657
1.667
1.662
1.652
1.681
1.701
1.676
1.657
1.667
1.681
1.676
1.662
1.667
1.691
1.676
1.647
1.662
1.686
1.691
1.681
1.681
1.701
1.701
1.667
1.662
1.676
1.681
1.662
1.652
1.667
1.681
1.657
1.637
1.652
1.667
1.662
1.647
1.662
1.686
1.676
1.647
1.657
1.676
1.672
1.657
1.657
1.681
1.686
1.657
1.652
1.676
1.676
1.662
1.642
1.662
1.676
1.657
1.647
1.672
1.691
1.686
1.672
1.676
1.696
1.681
1.652
1.657
1.676
1.676
1.667
1.672
1.696
1.696
1.667
1.662
1.686
1.696
1.686
1.676
1.696
1.72
1.701
1.686
1.706
1.72
1.716
1.701
1.711
1.73
1.711
1.686
1.691
1.711
1.706
1.681
1.672
1.691
1.686
1.652
1.647
1.672
1.676
1.662
1.652
1.676
1.696
1.676
1.657
1.667
1.681
1.672
1.647
1.647
1.667
1.652
1.623
1.637
1.662
1.667
1.652
1.647
1.676
1.681
1.647
1.642
1.662
1.672
1.657
1.642
1.662
1.686
1.672
1.672
1.711
1.75
1.76
1.769
1.799
1.848
1.862
1.872
1.921
1.979
2.014
2.019
2.019
2.023
1.994
1.911
1.833
1.769
1.696
1.618
1.564
1.549
1.559
1.54
1.535
1.574
1.608
1.623
1.632
1.652
1.686
1.672
1.642
1.647
1.662
1.657
1.647
1.652
1.676
1.676
1.642
1.642
1.672
1.681
1.667
1.657
1.672
1.691
1.672
1.652
1.667
1.676
1.662
1.647
1.652
1.676
1.667
1.642
1.657
1.681
1.686
1.672
1.672
1.691
1.696
1.667
1.657
1.681
1.696
1.696
1.691
1.711
1.73
1.706
1.686
1.701
1.716
1.706
1.686
1.681
1.701
1.691
1.662
1.667
1.691
1.701
1.691
1.691
1.725
1.74
1.711
1.706
1.725
1.735
1.72
1.711
1.725
1.74
1.711
1.686
1.701
1.72
1.72
1.711
1.72
1.75
1.75
1.725
1.74
1.76
1.76
1.74
1.73
1.75
1.75
1.725
1.72
1.745
1.76
1.745
1.74
1.76
1.779
1.76
1.745
1.755
1.769
1.755
1.73
1.735
1.764
1.755
1.735
1.745
1.769
1.774
1.75
1.735
1.745
1.74
1.696
1.676
1.696
1.711
1.701
1.696
1.716
1.735
1.706
1.681
1.686
1.686
1.662
1.637
1.637
1.662
1.652
1.628
1.637
1.667
1.676
1.667
1.662
1.676
1.681
1.642
1.632
1.652
1.657
1.647
1.632
1.647
1.667
1.647
1.632
1.647
1.662
1.657
1.642
1.642
1.662
1.647
1.623
1.632
1.662
1.667
1.652
1.652
1.676
1.686
1.652
1.637
1.647
1.657
1.647
1.637
1.652
1.667
1.642
1.623
1.637
1.657
1.652
1.642
1.652
1.681
1.676
1.652
1.662
1.686
1.681
1.652
1.642
1.652
1.657
1.623
1.608
1.632
1.647
1.642
1.642
1.667
1.691
1.667
1.647
1.652
1.667
1.657
1.642
1.647
1.672
1.657
1.628
1.632
1.662
1.662
1.652
1.652
1.676
1.691
1.667
1.662
1.691
1.701
1.676
1.652
1.657
1.672
1.642
1.623
1.642
1.667
1.667
1.652
1.657
1.691
1.681
1.652
1.652
1.672
1.672
1.652
1.647
1.672
1.681
1.647
1.637
1.657
1.667
1.657
1.647
1.662
1.676
1.652
1.632
1.647
1.672
1.672
1.657
1.667
1.686
1.676
1.647
1.657
1.676
1.681
1.667
1.662
1.686
1.691
1.657
1.642
1.647
1.652
1.637
1.637
1.657
1.681
1.667
1.652
1.676
1.701
1.681
1.657
1.662
1.686
1.676
1.642
1.647
1.672
1.672
1.657
1.647
1.652
1.652
1.628
1.628
1.657
1.681
1.676
1.672
1.696
1.72
1.696
1.667
1.672
1.681
1.672
1.652
1.662
1.686
1.686
1.667
1.681
1.72
1.73
1.72
1.711
1.73
1.735
1.701
1.691
1.711
1.716
1.701
1.686
1.701
1.716
1.696
1.667
1.681
1.696
1.686
1.672
1.676
1.701
1.686
1.647
1.642
1.652
1.652
1.632
1.628
1.647
1.662
1.642
1.637
1.662
1.672
1.657
1.647
1.657
1.672
1.647
1.623
1.637
1.657
1.652
1.642
1.647
1.676
1.676
1.652
1.657
1.686
1.701
1.696
1.696
1.73
1.755
1.74
1.755
1.799
1.843
1.867
1.891
1.94
1.999
2.004
1.994
2.004
2.009
1.96
1.891
1.833
1.779
1.701
1.608
1.559
1.549
1.535
1.515
1.515
1.554
1.593
1.593
1.613
1.647
1.672
1.662
1.647
1.652
1.672
1.647
1.618
1.632
1.652
1.647
1.632
1.642
1.672
1.672
1.642
1.647
1.672
1.672
1.652
1.647
1.667
1.681
1.652
1.647
1.676
1.691
1.681
1.667
1.681
1.701
1.681
1.657
1.667
1.691
1.691
1.676
1.681
1.706
1.696
1.662
1.657
1.672
1.672
1.657
1.657
1.681
1.701
1.681
1.672
1.696
1.711
1.706
1.691
1.696
1.716
1.691
1.667
1.676
1.696
1.701
1.691
1.696
1.725
1.725
1.701
1.706
1.73
1.735
1.716
1.711
1.73
1.75
1.72
1.711
1.725
1.74
1.73
1.72
1.73
1.75
1.73
1.711
1.725
1.74
1.735
1.725
1.735
1.76
1.76
1.735
1.74
1.764
1.769
1.755
1.745
1.76
1.769
1.735
1.72
1.74
1.75
1.74
1.725
1.74
1.76
1.74
1.716
1.725
1.75
1.745
1.725
1.72
1.735
1.725
1.696
1.691
1.711
1.716
1.691
1.681
1.701
1.711
1.676
1.657
1.676
1.686
1.676
1.657
1.672
1.686
1.667
1.642
1.652
1.672
1.662
1.642
1.647
1.676
1.672
1.642
1.642
1.667
1.667
1.647
1.637
1.647
1.657
1.628
1.613
1.632
1.647
1.642
1.637
1.652
1.676
1.662
1.632
1.642
1.657
1.652
1.632
1.632
1.667
1.667
1.642
1.637
1.662
1.672
1.657
1.647
1.662
1.676
1.647
1.642
1.667
1.681
1.672
1.657
1.672
1.691
1.667
1.632
1.637
1.657
1.647
1.628
1.628
1.652
1.652
1.623
1.628
1.657
1.667
1.657
1.647
1.672
1.686
1.657
1.642
1.657
1.667
1.647
1.637
1.647
1.672
1.662
1.642
1.662
1.686
1.681
1.657
1.652
1.672
1.667
1.632
1.628
1.652
1.667
1.662
1.652
1.676
1.691
1.662
1.642
1.657
1.672
1.667
1.657
1.667
1.686
1.667
1.637
1.647
1.667
1.662
1.642
1.647
1.672
1.672
1.647
1.657
1.681
1.686
1.667
1.652
1.672
1.686
1.662
1.647
1.662
1.672
1.657
1.647
1.657
1.681
1.662
1.632
1.642
1.667
1.667
1.657
1.652
1.672
1.667
1.632
1.628
1.652
1.662
1.657
1.652
1.676
1.691
1.667
1.657
1.672
1.691
1.676
1.657
1.662
1.686
1.662
1.637
1.647
1.672
1.672
1.662
1.662
1.681
1.681
1.657
1.662
1.681
1.681
1.662
1.657
1.681
1.701
1.676
1.667
1.686
1.711
1.706
1.696
1.711
1.73
1.711
1.686
1.691
1.706
1.701
1.686
1.686
1.716
1.716
1.691
1.691
1.711
1.716
1.696
1.676
1.686
1.691
1.657
1.632
1.652
1.667
1.662
1.652
1.662
1.686
1.672
1.642
1.652
1.672
1.672
1.662
1.662
1.681
1.681
1.647
1.642
1.662
1.667
1.647
1.632
1.652
1.662
1.637
1.623
1.642
1.657
1.642
1.628
1.637
1.672
1.672
1.667
1.701
1.745
1.769
1.774
1.804
1.857
1.891
1.901
1.945
2.004
2.038
2.033
2.019
2.014
1.979
1.891
1.794
1.725
1.662
1.593
1.535
1.525
1.54
1.535
1.53
1.559
1.598
1.613
1.618
1.628
1.662
1.667
1.637
1.637
1.662
1.672
1.657
1.647
1.667
1.681
1.652
1.632
1.647
1.657
1.647
1.637
1.642
1.662
1.642
1.618
1.628
1.652
1.652
1.642
1.647
1.672
1.681
1.657
1.657
1.686
1.696
1.686
1.676
1.686
1.691
1.652
1.632
1.647
1.667
1.667
1.662
1.681
1.716
1.706
1.681
1.691
1.716
1.711
1.686
1.681
1.696
1.701
1.676
1.681
1.701
1.701
1.681
1.667
1.691
1.711
1.691
1.686
1.711
1.73
1.72
1.706
1.711
1.725
1.706
1.676
1.686
1.711
1.716
1.711
1.716
1.74
1.74
1.711
1.711
1.73
1.735
1.725
1.716
1.735
1.755
1.735
1.725
1.74
1.76
1.755
1.74
1.75
1.779
1.764
1.74
1.745
1.76
1.75
1.735
1.73
1.755
1.755
1.73
1.725
1.745
1.75
1.735
1.73
1.74
1.75
1.711
1.681
1.696
1.716
1.701
1.672
1.667
1.691
1.676
1.652
1.662
1.681
1.681
1.667
1.667
1.691
1.691
1.652
1.642
1.657
1.657
1.632
1.618
1.637
1.652
1.628
1.618
1.637
1.657
1.652
1.632
1.637
1.662
1.647
1.613
1.618
1.637
1.637
1.623
1.618
1.642
1.647
1.618
1.618
1.642
1.662
1.657
1.647
1.662
1.681
1.657
1.637
1.647
1.652
1.632
1.623
1.628
1.647
1.632
1.608
1.623
1.647
1.652
1.642
1.647
1.672
1.681
1.652
1.642
1.667
1.667
1.652
1.642
1.652
1.662
1.637
1.623
1.642
1.662
1.652
1.642
1.652
1.672
1.657
1.632
1.637
1.657
1.652
1.632
1.628
1.652
1.657
1.637
1.637
1.667
1.676
1.667
1.647
1.662
1.672
1.642
1.623
1.632
1.657
1.662
1.652
1.662
1.691
1.681
1.652
1.662
1.686
1.691
1.667
1.662
1.676
1.672
1.637
1.623
1.637
1.647
1.642
1.647
1.681
1.701
1.676
1.657
1.667
1.676
1.657
1.632
1.637
1.662
1.657
1.637
1.647
1.667
1.662
1.642
1.637
1.657
1.662
1.637
1.637
1.662
1.667
1.647
1.637
1.652
1.676
1.657
1.642
1.662
1.686
1.676
1.657
1.667
1.686
1.672
1.637
1.642
1.667
1.676
1.667
1.667
1.691
1.691
1.657
1.657
1.681
1.696
1.686
1.676
1.691
1.711
1.691
1.672
1.691
1.706
1.701
1.691
1.706
1.725
1.711
1.676
1.681
1.701
1.701
1.681
1.676
1.701
1.711
1.681
1.672
1.691
1.691
1.667
1.647
1.652
1.667
1.642
1.628
1.642
1.657
1.652
1.642
1.647
1.672
1.657
1.632
1.637
1.662
1.662
1.652
1.652
1.672
1.672
1.637
1.632
1.662
1.681
1.676
1.667
1.686
1.701
1.672
1.647
1.662
1.676
1.676
1.676
1.696
1.74
1.75
1.75
1.779
1.828
1.857
1.872
1.906
1.96
1.989
1.975
1.97
1.975
1.95
1.887
1.808
1.75
1.701
1.613
1.544
1.525
1.52
1.505
1.51
1.549
1.603
1.618
1.618
1.637
1.672
1.667
1.647
1.637
1.652
1.652
1.623
1.623
1.652
1.662
1.647
1.637
1.647
1.672
1.652
1.642
1.672
1.701
1.701
1.686
1.686
1.701
1.681
1.642
1.642
1.667
1.672
1.662
1.667
1.696
1.711
1.681
1.672
1.686
1.691
1.676
1.662
1.681
1.701
1.686
1.667
1.681
1.696
1.686
1.672
1.681
1.711
1.701
1.676
1.691
1.72
1.725
1.716
1.706
1.725
1.725
1.691
1.681
1.701
1.716
1.711
1.706
1.725
1.745
1.725
1.706
1.72
1.735
1.725
1.706
1.706
1.73
1.725
1.701
1.72
1.745
1.755
1.75
1.75
1.774
1.774
1.74
1.725
1.74
1.75
1.73
1.716
1.735
1.76
1.74
1.72
1.74
1.76
1.75
1.735
1.74
1.769
1.769
1.745
1.755
1.779
1.779
1.76
1.75
1.76
1.76
1.725
1.716
1.735
1.745
1.725
1.706
1.716
1.72
1.691
1.662
1.672
1.696
1.701
1.686
1.696
1.716
1.706
1.667
1.662
1.681
1.681
1.667
1.667
1.691
1.696
1.652
1.637
1.647
1.652
1.637
1.618
1.628
1.652
1.642
1.628
1.657
1.676
1.667
1.647
1.652
1.676
1.672
1.642
1.637
1.652
1.647
1.628
1.623
1.647
1.657
1.628
1.618
1.642
1.657
1.657
1.642
1.652
1.667
1.647
1.628
1.637
1.652
1.642
1.628
1.632
1.667
1.667
1.647
1.657
1.686
1.691
1.676
1.662
1.681
1.681
1.642
1.632
1.647
1.662
1.652
1.642
1.652
1.667
1.647
1.628
1.642
1.667
1.667
1.652
1.657
1.686
1.681
1.657
1.662
1.686
1.691
1.672
1.672
1.696
1.701
1.667
1.652
1.662
1.662
1.647
1.632
1.652
1.676
1.662
1.647
1.667
1.696
1.701
1.686
1.686
1.696
1.686
1.657
1.662
1.681
1.681
1.662
1.657
1.672
1.672
1.637
1.623
1.642
1.652
1.642
1.642
1.662
1.686
1.676
1.657
1.672
1.691
1.681
1.662
1.662
1.686
1.681
1.652
1.652
1.676
1.686
1.676
1.667
1.681
1.691
1.662
1.652
1.672
1.686
1.672
1.662
1.676
1.701
1.681
1.657
1.667
1.681
1.672
1.657
1.652
1.676
1.672
1.647
1.647
1.672
1.667
1.652
1.652
1.681
1.696
1.672
1.662
1.686
1.701
1.691
1.676
1.686
1.706
1.686
1.667
1.686
1.711
1.706
1.691
1.696
1.725
1.725
1.701
1.711
1.735
1.745
1.73
1.72
1.735
1.735
1.696
1.686
1.701
1.716
1.701
1.686
1.696
1.706
1.681
1.652
1.657
1.672
1.667
1.647
1.652
1.681
1.676
1.657
1.662
1.686
1.681
1.662
1.657
1.676
1.686
1.652
1.637
1.652
1.657
1.642
1.628
1.647
1.672
1.657
1.637
1.647
1.667
1.662
1.652
1.662
1.691
1.701
1.691
1.72
1.779
1.813
1.833
1.852
1.901
1.94
1.94
1.965
2.004
2.023
2.014
1.984
1.96
1.931
1.838
1.735
1.676
1.632
1.579
1.53
1.52
1.54
1.544
1.54
1.564
1.618
1.642
1.652
1.652
1.672
1.681
1.657
1.647
1.662
1.667
1.647
1.628
1.637
1.657
1.637
1.618
1.632
1.662
1.667
1.667
1.681
1.716
1.711
1.676
1.676
1.696
1.691
1.672
1.662
1.681
1.691
1.667
1.667
1.686
1.696
1.681
1.667
1.681
1.696
1.672
1.642
1.652
1.681
1.686
1.672
1.676
1.701
1.706
1.681
1.691
1.72
1.73
1.72
1.72
1.735
1.735
1.691
1.667
1.676
1.686
1.681
1.676
1.701
1.725
1.716
1.706
1.725
1.75
1.735
1.711
1.711
1.735
1.735
1.711
1.72
1.745
1.745
1.73
1.72
1.74
1.755
1.73
1.72
1.74
1.755
1.745
1.73
1.74
1.764
1.75
1.73
1.745
1.764
1.76
1.75
1.75
1.774
1.769
1.735
1.73
1.75
1.755
1.74
1.74
1.76
1.764
1.725
1.706
1.725
1.74
1.73
1.72
1.73
1.745
1.725
1.696
1.696
1.711
1.711
1.706
1.706
1.725
1.725
1.701
1.696
1.716
1.711
1.691
1.676
1.686
1.691
1.662
1.647
1.657
1.662
1.642
1.628
1.637
1.662
1.652
1.632
1.642
1.662
1.657
1.637
1.632
1.652
1.647
1.623
1.628
1.652
1.662
1.652
1.652
1.672
1.686
1.652
1.642
1.657
1.667
1.657
1.647
1.667
1.691
1.676
1.652
1.662
1.681
1.676
1.657
1.652
1.667
1.662
1.632
1.637
1.667
1.676
1.662
1.647
1.667
1.681
1.652
1.637
1.662
1.676
1.667
1.652
1.662
1.681
1.667
1.637
1.647
1.667
1.667
1.647
1.647
1.672
1.676
1.652
1.657
1.681
1.691
1.676
1.672
1.691
1.696
1.662
1.647
1.667
1.676
1.667
1.662
1.681
1.711
1.696
1.667
1.672
1.681
1.676
1.652
1.647
1.672
1.672
1.652
1.662
1.686
1.691
1.681
1.667
1.676
1.676
1.637
1.623
1.642
1.652
1.647
1.642
1.662
1.696
1.686
1.667
1.676
1.696
1.686
1.667
1.667
1.686
1.686
1.662
1.662
1.686
1.691
1.676
1.662
1.676
1.686
1.667
1.657
1.672
1.681
1.672
1.662
1.681
1.706
1.691
1.667
1.676
1.696
1.696
1.672
1.662
1.676
1.662
1.628
1.623
1.647
1.657
1.647
1.647
1.672
1.686
1.662
1.647
1.667
1.676
1.667
1.652
1.667
1.696
1.691
1.676
1.691
1.716
1.716
1.696
1.691
1.711
1.711
1.686
1.691
1.716
1.72
1.706
1.696
1.72
1.74
1.711
1.691
1.711
1.725
1.716
1.696
1.706
1.725
1.711
1.686
1.691
1.716
1.711
1.691
1.686
1.696
1.676
1.632
1.623
1.647
1.657
1.652
1.647
1.676
1.691
1.667
1.662
1.681
1.691
1.676
1.657
1.662
1.686
1.667
1.642
1.652
1.672
1.667
1.647
1.652
1.676
1.676
1.642
1.637
1.662
1.676
1.672
1.676
1.701
1.725
1.716
1.716
1.75
1.779
1.794
1.799
1.838
1.896
1.916
1.935
1.984
2.028
2.038
2.009
1.975
1.95
1.882
1.774
1.691
1.642
1.593
1.54
1.515
1.53
1.554
1.54
1.549
1.588
1.628
1.637
1.637
1.652
1.676
1.662
1.637
1.647
1.662
1.657
1.642
1.642
1.672
1.676
1.652
1.657
1.681
1.691
1.681
1.672
1.681
1.686
1.652
1.628
1.647
1.667
1.667
1.657
1.672
1.696
1.686
1.662
1.672
1.696
1.691
1.672
1.672
1.696
1.691
1.657
1.652
1.672
1.676
1.667
1.662
1.686
1.711
1.691
1.676
1.696
1.716
1.706
1.686
1.696
1.716
1.706
1.686
1.701
1.725
1.72
1.701
1.691
1.716
1.716
1.686
1.686
1.716
1.735
1.725
1.716
1.73
1.745
1.716
1.701
1.716
1.725
1.716
1.706
1.72
1.75
1.74
1.716
1.735
1.755
1.75
1.735
1.73
1.75
1.745
1.716
1.711
1.74
1.755
1.745
1.74
1.764
1.779
1.755
1.735
1.745
1.76
1.75
1.735
1.745
1.769
1.755
1.73
1.735
1.755
1.75
1.73
1.72
1.735
1.725
1.691
1.686
1.706
1.706
1.696
1.681
1.691
1.706
1.681
1.672
1.696
1.706
1.696
1.676
1.686
1.706
1.686
1.652
1.652
1.667
1.667
1.652
1.652
1.676
1.676
1.647
1.642
1.662
1.662
1.652
1.642
1.657
1.667
1.642
1.623
1.632
1.642
1.637
1.623
1.637
1.662
1.662
1.657
1.676
1.701
1.696
1.676
1.667
1.686
1.676
1.632
1.618
1.632
1.637
1.628
1.623
1.642
1.667
1.642
1.628
1.647
1.662
1.657
1.637
1.647
1.667
1.657
1.637
1.652
1.672
1.672
1.652
1.647
1.662
1.662
1.632
1.628
1.652
1.662
1.652
1.642
1.657
1.672
1.642
1.623
1.637
1.657
1.657
1.642
1.662
1.691
1.691
1.672
1.681
1.701
1.691
1.662
1.652
1.667
1.672
1.642
1.642
1.667
1.676
1.662
1.647
1.662
1.672
1.642
1.628
1.647
1.667
1.672
1.662
1.662
1.681
1.662
1.628
1.628
1.652
1.657
1.642
1.647
1.672
1.686
1.662
1.662
1.686
1.691
1.676
1.657
1.667
1.681
1.652
1.637
1.647
1.662
1.667
1.667
1.686
1.716
1.701
1.667
1.662
1.672
1.662
1.642
1.637
1.657
1.662
1.637
1.637
1.657
1.672
1.672
1.667
1.681
1.701
1.672
1.652
1.657
1.662
1.647
1.632
1.637
1.662
1.657
1.642
1.657
1.686
1.701
1.691
1.686
1.706
1.706
1.672
1.662
1.686
1.701
1.681
1.672
1.691
1.716
1.706
1.711
1.735
1.755
1.74
1.716
1.72
1.73
1.711
1.681
1.681
1.696
1.696
1.681
1.672
1.691
1.691
1.647
1.637
1.652
1.657
1.647
1.642
1.662
1.681
1.657
1.637
1.647
1.662
1.652
1.637
1.647
1.676
1.667
1.647
1.652
1.672
1.672
1.647
1.637
1.652
1.652
1.618
1.613
1.637
1.652
1.647
1.637
1.662
1.691
1.691
1.696
1.735
1.774
1.789
1.799
1.833
1.882
1.901
1.906
1.945
1.999
2.023
2.019
2.009
2.004
1.965
1.872
1.784
1.72
1.652
1.579
1.525
1.51
1.515
1.496
1.491
1.53
1.574
1.598
1.608
1.637
1.672
1.672
1.647
1.652
1.676
1.676
1.657
1.647
1.667
1.676
1.647
1.637
1.652
1.652
1.642
1.632
1.652
1.667
1.637
1.623
1.647
1.676
1.676
1.667
1.672
1.696
1.686
1.652
1.652
1.662
1.657
1.642
1.637
1.657
1.672
1.647
1.647
1.676
1.691
1.686
1.681
1.701
1.72
1.691
1.662
1.676
1.696
1.691
1.676
1.676
1.706
1.701
1.681
1.691
1.716
1.72
1.701
1.696
1.716
1.72
1.691
1.676
1.691
1.696
1.681
1.672
1.691
1.706
1.686
1.676
1.701
1.73
1.73
1.72
1.725
1.755
1.75
1.72
1.725
1.745
1.74
1.72
1.72
1.745
1.75
1.716
1.706
1.735
1.75
1.74
1.73
1.74
1.76
1.735
1.716
1.735
1.755
1.75
1.735
1.74
1.764
1.75
1.72
1.725
1.745
1.74
1.725
1.711
1.725
1.72
1.686
1.676
1.691
1.701
1.681
1.667
1.681
1.696
1.676
1.667
1.686
1.706
1.696
1.672
1.676
1.696
1.681
1.642
1.637
1.652
1.647
1.628
1.623
1.652
1.672
1.652
1.642
1.662
1.667
1.642
1.618
1.623
1.642
1.623
1.608
1.632
1.662
1.662
1.652
1.657
1.676
1.657
1.618
1.613
1.632
1.632
1.623
1.628
1.652
1.662
1.632
1.618
1.632
1.637
1.628
1.623
1.642
1.667
1.652
1.642
1.662
1.681
1.672
1.652
1.647
1.662
1.647
1.618
1.618
1.642
1.652
1.647
1.652
1.672
1.672
1.642
1.637
1.662
1.672
1.652
1.637
1.647
1.672
1.652
1.637
1.657
1.672
1.662
1.647
1.652
1.676
1.667
1.637
1.642
1.662
1.662
1.647
1.647
1.667
1.681
1.647
1.637
1.652
1.667
1.657
1.647
1.667
1.686
1.667
1.647
1.662
1.676
1.667
1.652
1.652
1.676
1.667
1.628
1.623
1.642
1.647
1.632
1.632
1.662
1.676
1.657
1.662
1.681
1.686
1.662
1.642
1.652
1.662
1.642
1.618
1.632
1.652
1.647
1.632
1.647
1.676
1.672
1.642
1.647
1.676
1.686
1.672
1.676
1.701
1.716
1.686
1.676
1.701
1.711
1.691
1.672
1.676
1.696
1.676
1.662
1.681
1.701
1.701
1.686
1.691
1.711
1.701
1.672
1.676
1.701
1.701
1.681
1.672
1.686
1.691
1.652
1.637
1.652
1.657
1.647
1.632
1.642
1.657
1.637
1.618
1.628
1.647
1.642
1.632
1.647
1.672
1.672
1.647
1.652
1.672
1.662
1.642
1.628
1.647
1.652
1.618
1.608
1.637
1.662
1.662
1.662
1.686
1.716
1.706
1.696
1.73
1.774
1.799
1.813
1.852
1.906
1.94
1.94
1.96
1.984
1.979
1.94
1.896
1.862
1.808
1.711
1.642
1.603
1.569
1.525
1.491
1.5
1.535
1.53
1.535
1.574
1.618
1.623
1.618
1.628
1.657
1.662
1.642
1.657
1.681
1.681
1.662
1.652
1.662
1.667
1.632
1.623
1.647
1.662
1.657
1.647
1.652
1.662
1.642
1.618
1.632
1.657
1.662
1.662
1.676
1.706
1.706
1.672
1.672
1.691
1.691
1.672
1.667
1.696
1.716
1.696
1.686
1.701
1.706
1.686
1.672
1.681
1.701
1.672
1.647
1.662
1.686
1.696
1.686
1.696
1.72
1.711
1.681
1.686
1.72
1.73
1.716
1.706
1.725
1.74
1.711
1.701
1.716
1.716
1.701
1.686
1.706
1.725
1.716
1.701
1.72
1.75
1.75
1.74
1.75
1.774
1.764
1.735
1.73
1.745
1.745
1.73
1.725
1.75
1.764
1.74
1.73
1.755
1.769
1.755
1.735
1.745
1.769
1.75
1.73
1.745
1.764
1.76
1.74
1.74
1.76
1.75
1.711
1.706
1.72
1.725
1.711
1.706
1.725
1.735
1.706
1.696
1.716
1.72
1.706
1.691
1.696
1.711
1.686
1.657
1.667
1.686
1.681
1.662
1.662
1.676
1.667
1.632
1.637
1.657
1.657
1.647
1.642
1.662
1.672
1.642
1.632
1.652
1.667
1.657
1.637
1.647
1.667
1.647
1.623
1.637
1.652
1.652
1.642
1.647
1.672
1.662
1.628
1.628
1.642
1.642
1.623
1.613
1.637
1.657
1.642
1.637
1.667
1.676
1.662
1.642
1.657
1.681
1.662
1.632
1.637
1.657
1.647
1.632
1.628
1.652
1.647
1.618
1.623
1.652
1.667
1.657
1.652
1.676
1.691
1.667
1.652
1.676
1.686
1.676
1.657
1.662
1.676
1.647
1.618
1.628
1.652
1.657
1.652
1.667
1.696
1.701
1.676
1.672
1.686
1.686
1.667
1.657
1.662
1.667
1.632
1.618
1.642
1.657
1.652
1.647
1.672
1.701
1.691
1.667
1.676
1.691
1.681
1.657
1.652
1.676
1.676
1.652
1.652
1.676
1.681
1.662
1.652
1.672
1.681
1.657
1.642
1.662
1.672
1.662
1.647
1.662
1.686
1.667
1.647
1.662
1.686
1.681
1.667
1.667
1.686
1.676
1.647
1.647
1.667
1.672
1.652
1.637
1.647
1.662
1.637
1.632
1.667
1.686
1.686
1.672
1.686
1.706
1.691
1.662
1.667
1.686
1.691
1.691
1.701
1.735
1.73
1.701
1.696
1.716
1.716
1.706
1.706
1.73
1.75
1.725
1.706
1.72
1.716
1.691
1.667
1.667
1.681
1.662
1.637
1.657
1.681
1.676
1.657
1.652
1.672
1.662
1.632
1.628
1.652
1.657
1.647
1.642
1.667
1.691
1.667
1.652
1.667
1.676
1.667
1.652
1.662
1.681
1.662
1.637
1.652
1.676
1.676
1.662
1.662
1.681
1.681
1.662
1.667
1.706
1.73
1.74
1.755
1.794
1.828
1.833
1.852
1.911
1.96
1.979
1.984
2.004
2.009
1.97
1.896
1.843
1.779
1.696
1.608
1.554
1.544
1.53
1.51
1.53
1.574
1.608
1.623
1.637
1.672
1.681
1.647
1.623
1.642
1.657
1.652
1.642
1.652
1.676
1.662
1.642
1.657
1.672
1.667
1.647
1.642
1.662
1.662
1.632
1.642
1.667
1.672
1.657
1.647
1.667
1.681
1.662
1.647
1.662
1.672
1.667
1.652
1.667
1.691
1.681
1.662
1.676
1.701
1.696
1.681
1.681
1.706
1.701
1.667
1.657
1.676
1.691
1.681
1.681
1.701
1.716
1.686
1.676
1.696
1.716
1.711
1.696
1.706
1.72
1.706
1.676
1.686
1.716
1.716
1.701
1.706
1.73
1.73
1.701
1.696
1.716
1.72
1.706
1.696
1.716
1.725
1.696
1.691
1.72
1.745
1.74
1.735
1.75
1.774
1.764
1.745
1.755
1.769
1.755
1.73
1.725
1.745
1.745
1.716
1.711
1.73
1.74
1.735
1.735
1.769
1.789
1.764
1.745
1.755
1.76
1.74
1.716
1.716
1.73
1.711
1.681
1.691
1.716
1.711
1.691
1.681
1.701
1.701
1.672
1.676
1.701
1.701
1.686
1.676
1.691
1.696
1.662
1.637
1.652
1.662
1.657
1.642
1.652
1.676
1.662
1.637
1.642
1.657
1.652
1.637
1.637
1.662
1.662
1.637
1.632
1.657
1.657
1.642
1.628
1.642
1.662
1.637
1.623
1.647
1.672
1.672
1.657
1.667
1.686
1.676
1.647
1.652
1.667
1.662
1.647
1.642
1.662
1.662
1.628
1.623
1.647
1.657
1.642
1.632
1.652
1.662
1.637
1.623
1.637
1.652
1.647
1.637
1.652
1.676
1.667
1.642
1.647
1.667
1.662
1.647
1.652
1.676
1.676
1.652
1.652
1.681
1.696
1.681
1.662
1.672
1.681
1.652
1.637
1.662
1.676
1.667
1.652
1.657
1.686
1.672
1.647
1.657
1.672
1.667
1.652
1.657
1.681
1.681
1.652
1.647
1.672
1.676
1.657
1.647
1.667
1.681
1.657
1.637
1.652
1.667
1.662
1.647
1.662
1.686
1.681
1.657
1.662
1.681
1.672
1.652
1.652
1.681
1.686
1.657
1.652
1.681
1.691
1.672
1.647
1.657
1.672
1.647
1.637
1.662
1.681
1.681
1.672
1.681
1.701
1.681
1.652
1.657
1.676
1.676
1.657
1.652
1.672
1.672
1.642
1.647
1.676
1.686
1.681
1.672
1.696
1.716
1.691
1.676
1.691
1.72
1.72
1.711
1.72
1.74
1.725
1.696
1.706
1.72
1.716
1.691
1.691
1.716
1.72
1.696
1.681
1.696
1.691
1.662
1.642
1.657
1.672
1.652
1.642
1.667
1.691
1.691
1.681
1.681
1.696
1.672
1.632
1.632
1.657
1.662
1.647
1.652
1.676
1.676
1.647
1.642
1.657
1.657
1.642
1.637
1.662
1.686
1.662
1.647
1.662
1.672
1.662
1.642
1.657
1.691
1.696
1.691
1.725
1.769
1.794
1.804
1.838
1.896
1.931
1.935
1.96
2.009
2.033
2.009
1.975
1.945
1.906
1.813
1.72
1.662
1.608
1.554
1.51
1.51
1.54
1.549
1.554
1.593
1.647
1.662
1.657
1.652
1.667
1.672
1.642
1.632
1.657
1.667
1.662
1.657
1.676
1.691
1.667
1.647
1.657
1.672
1.662
1.642
1.647
1.667
1.662
1.632
1.647
1.672
1.676
1.662
1.662
1.681
1.686
1.652
1.642
1.667
1.681
1.676
1.667
1.686
1.706
1.686
1.672
1.691
1.711
1.701
1.676
1.681
1.711
1.696
1.667
1.667
1.691
1.696
1.686
1.681
1.706
1.716
1.686
1.686
1.711
1.725
1.716
1.706
1.73
1.745
1.72
1.701
1.716
1.73
1.72
1.701
1.711
1.735
1.73
1.701
1.706
1.725
1.725
1.706
1.706
1.73
1.73
1.701
1.696
1.725
1.745
1.74
1.735
1.75
1.769
1.745
1.725
1.74
1.76
1.75
1.735
1.74
1.764
1.755
1.73
1.74
1.764
1.764
1.74
1.735
1.755
1.76
1.725
1.716
1.735
1.74
1.73
1.716
1.735
1.755
1.73
1.706
1.72
1.73
1.716
1.696
1.696
1.711
1.691
1.652
1.647
1.662
1.662
1.647
1.642
1.667
1.676
1.652
1.647
1.672
1.681
1.667
1.652
1.662
1.676
1.652
1.632
1.647
1.662
1.652
1.637
1.647
1.676
1.667
1.637
1.642
1.662
1.657
1.637
1.637
1.667
1.686
1.662
1.657
1.681
1.691
1.676
1.652
1.657
1.657
1.628
1.603
1.628
1.657
1.657
1.642
1.642
1.662
1.657
1.628
1.637
1.657
1.652
1.637
1.642
1.667
1.676
1.647
1.647
1.672
1.681
1.667
1.652
1.662
1.676
1.647
1.628
1.647
1.672
1.667
1.652
1.657
1.681
1.672
1.642
1.647
1.667
1.676
1.667
1.662
1.686
1.691
1.662
1.657
1.676
1.686
1.676
1.662
1.681
1.701
1.676
1.652
1.662
1.667
1.647
1.628
1.637
1.662
1.657
1.632
1.642
1.672
1.676
1.667
1.667
1.691
1.696
1.662
1.652
1.672
1.691
1.686
1.672
1.686
1.696
1.667
1.647
1.662
1.686
1.681
1.667
1.667
1.686
1.676
1.647
1.647
1.667
1.667
1.662
1.662
1.691
1.701
1.667
1.662
1.681
1.681
1.662
1.642
1.652
1.672
1.652
1.637
1.647
1.662
1.647
1.632
1.637
1.667
1.662
1.637
1.647
1.676
1.681
1.667
1.662
1.686
1.696
1.672
1.672
1.691
1.706
1.696
1.691
1.706
1.725
1.701
1.676
1.691
1.711
1.711
1.701
1.706
1.72
1.711
1.681
1.686
1.711
1.72
1.711
1.711
1.725
1.73
1.691
1.676
1.691
1.691
1.672
1.657
1.667
1.681
1.657
1.637
1.652
1.667
1.657
1.637
1.642
1.667
1.662
1.637
1.642
1.667
1.672
1.657
1.652
1.676
1.681
1.652
1.637
1.657
1.662
1.652
1.637
1.657
1.686
1.672
1.657
1.672
1.686
1.676
1.662
1.672
1.701
1.706
1.696
1.725
1.774
1.808
1.823
1.852
1.906
1.95
1.96
1.984
2.023
2.033
2.004
1.955
1.916
1.862
1.76
1.662
1.608
1.569
1.53
1.496
1.5
1.535
1.544
1.544
1.579
1.628
1.657
1.657
1.662
1.686
1.691
1.662
1.647
1.657
1.667
1.652
1.637
1.652
1.672
1.652
1.632
1.647
1.667
1.662
1.642
1.647
1.672
1.672
1.647
1.647
1.667
1.672
1.662
1.657
1.681
1.691
1.667
1.657
1.686
1.696
1.686
1.667
1.676
1.691
1.662
1.642
1.657
1.681
1.672
1.657
1.662
1.691
1.686
1.662
1.667
1.686
1.696
1.681
1.681
1.701
1.711
1.691
1.681
1.706
1.711
1.701
1.691
1.711
1.735
1.716
1.691
1.701
1.716
1.706
1.691
1.696
1.716
1.716
1.696
1.706
1.735
1.745
1.735
1.735
1.755
1.76
1.725
1.711
1.725
1.73
1.72
1.711
1.72
1.74
1.72
1.711
1.74
1.764
1.764
1.745
1.75
1.774
1.764
1.73
1.73
1.745
1.755
1.75
1.75
1.769
1.774
1.74
1.73
1.74
1.735
1.711
1.686
1.696
1.716
1.696
1.672
1.686
1.701
1.691
1.672
1.676
1.701
1.701
1.672
1.672
1.696
1.696
1.681
1.667
1.676
1.676
1.642
1.628
1.647
1.662
1.652
1.642
1.652
1.672
1.657
1.642
1.657
1.676
1.672
1.652
1.652
1.672
1.657
1.618
1.618
1.637
1.647
1.647
1.652
1.681
1.696
1.667
1.652
1.667
1.676
1.657
1.628
1.628
1.647
1.632
1.618
1.637
1.662
1.657
1.642
1.652
1.686
1.681
1.652
1.652
1.667
1.667
1.642
1.623
1.637
1.647
1.618
1.618
1.642
1.667
1.662
1.657
1.672
1.691
1.667
1.642
1.647
1.667
1.657
1.647
1.652
1.681
1.681
1.652
1.662
1.691
1.691
1.672
1.662
1.676
1.681
1.647
1.628
1.642
1.652
1.642
1.637
1.652
1.672
1.662
1.642
1.662
1.686
1.686
1.667
1.662
1.681
1.667
1.637
1.647
1.672
1.681
1.667
1.662
1.681
1.691
1.657
1.637
1.647
1.652
1.642
1.632
1.647
1.676
1.662
1.642
1.652
1.672
1.662
1.647
1.647
1.676
1.672
1.647
1.652
1.676
1.676
1.662
1.657
1.676
1.686
1.657
1.642
1.657
1.672
1.662
1.652
1.662
1.686
1.672
1.652
1.667
1.681
1.672
1.652
1.652
1.681
1.681
1.662
1.667
1.696
1.696
1.681
1.667
1.681
1.676
1.642
1.632
1.662
1.681
1.681
1.681
1.701
1.725
1.706
1.681
1.696
1.716
1.706
1.691
1.691
1.716
1.72
1.696
1.696
1.716
1.716
1.691
1.672
1.686
1.686
1.657
1.642
1.662
1.672
1.657
1.637
1.657
1.681
1.667
1.642
1.657
1.681
1.681
1.662
1.662
1.681
1.672
1.637
1.628
1.642
1.642
1.632
1.632
1.652
1.667
1.642
1.637
1.667
1.681
1.667
1.652
1.657
1.672
1.647
1.623
1.642
1.672
1.681
1.686
1.716
1.769
1.789
1.789
1.813
1.867
1.906
1.926
1.95
1.989
2.009
1.984
1.955
1.95
1.916
1.843
1.755
1.691
1.647
1.574
1.515
1.505
1.52
1.525
1.52
1.544
1.588
1.608
1.598
1.608
1.637
1.647
1.642
1.642
1.667
1.676
1.652
1.647
1.672
1.686
1.676
1.662
1.672
1.701
1.686
1.662
1.672
1.681
1.672
1.647
1.652
1.672
1.672
1.642
1.642
1.672
1.681
1.667
1.657
1.681
1.691
1.662
1.652
1.667
1.681
1.667
1.652
1.672
1.701
1.691
1.662
1.676
1.701
1.706
1.686
1.686
1.706
1.701
1.672
1.676
1.701
1.706
1.691
1.681
1.706
1.72
1.701
1.691
1.711
1.72
1.701
1.686
1.696
1.72
1.696
1.676
1.696
1.73
1.74
1.74
1.745
1.764
1.755
1.725
1.72
1.745
1.75
1.73
1.72
1.735
1.75
1.725
1.711
1.73
1.74
1.735
1.725
1.74
1.764
1.755
1.735
1.74
1.755
1.74
1.725
1.725
1.75
1.75
1.72
1.725
1.75
1.76
1.74
1.725
1.74
1.74
1.706
1.686
1.701
1.711
1.706
1.696
1.716
1.735
1.716
1.691
1.696
1.711
1.696
1.672
1.667
1.686
1.681
1.647
1.647
1.672
1.676
1.662
1.652
1.672
1.686
1.657
1.642
1.662
1.676
1.667
1.652
1.662
1.672
1.647
1.628
1.642
1.662
1.657
1.632
1.637
1.662
1.657
1.623
1.613
1.637
1.647
1.642
1.637
1.647
1.657
1.632
1.623
1.637
1.642
1.623
1.613
1.632
1.667
1.657
1.637
1.652
1.672
1.667
1.647
1.642
1.662
1.662
1.632
1.637
1.667
1.676
1.667
1.662
1.676
1.686
1.657
1.642
1.667
1.686
1.676
1.662
1.676
1.701
1.676
1.642
1.647
1.657
1.652
1.642
1.657
1.696
1.701
1.676
1.681
1.701
1.691
1.657
1.637
1.642
1.652
1.628
1.628
1.662
1.691
1.691
1.676
1.681
1.696
1.667
1.637
1.647
1.667
1.662
1.652
1.657
1.686
1.681
1.652
1.652
1.676
1.681
1.667
1.657
1.676
1.696
1.672
1.657
1.672
1.676
1.667
1.647
1.652
1.672
1.657
1.637
1.652
1.676
1.676
1.662
1.662
1.686
1.681
1.652
1.652
1.667
1.672
1.657
1.652
1.672
1.686
1.657
1.642
1.662
1.676
1.672
1.662
1.681
1.711
1.701
1.681
1.691
1.716
1.716
1.696
1.696
1.711
1.706
1.676
1.676
1.701
1.711
1.706
1.706
1.73
1.74
1.716
1.696
1.711
1.711
1.686
1.662
1.667
1.691
1.676
1.657
1.672
1.691
1.686
1.667
1.657
1.667
1.657
1.618
1.608
1.632
1.652
1.657
1.657
1.681
1.696
1.667
1.652
1.662
1.667
1.647
1.623
1.632
1.657
1.642
1.628
1.642
1.672
1.672
1.657
1.657
1.681
1.686
1.667
1.681
1.72
1.74
1.745
1.75
1.789
1.818
1.818
1.838
1.896
1.95
1.975
1.989
2.014
2.033
1.994
1.926
1.882
1.833
1.755
1.667
1.603
1.584
1.559
1.515
1.51
1.535
1.554
1.559
1.574
1.623
1.662
1.652
1.642
1.662
1.667
1.652
1.637
1.642
1.662
1.642
1.628
1.642
1.676
1.681
1.672
1.672
1.686
1.681
1.647
1.642
1.662
1.667
1.667
1.667
1.686
1.706
1.686
1.676
1.696
1.711
1.691
1.667
1.672
1.701
1.691
1.672
1.681
1.711
1.711
1.696
1.691
1.706
1.701
1.662
1.652
1.672
1.681
1.676
1.676
1.701
1.72
1.696
1.691
1.716
1.735
1.725
1.711
1.716
1.735
1.711
1.686
1.696
1.711
1.711
1.696
1.706
1.74
1.745
1.72
1.72
1.74
1.745
1.73
1.716
1.73
1.745
1.725
1.716
1.745
1.764
1.755
1.735
1.74
1.76
1.745
1.725
1.735
1.76
1.76
1.75
1.75
1.769
1.76
1.725
1.725
1.745
1.755
1.745
1.745
1.764
1.779
1.76
1.74
1.745
1.745
1.725
1.701
1.706
1.73
1.716
1.686
1.696
1.716
1.716
1.701
1.701
1.72
1.72
1.691
1.686
1.706
1.701
1.676
1.662
1.672
1.676
1.642
1.623
1.642
1.662
1.657
1.642
1.662
1.691
1.681
1.657
1.667
1.686
1.681
1.657
1.647
1.667
1.662
1.632
1.628
1.652
1.662
1.652
1.642
1.662
1.672
1.642
1.628
1.647
1.667
1.662
1.647
1.657
1.672
1.652
1.632
1.642
1.662
1.662
1.647
1.647
1.667
1.662
1.628
1.623
1.642
1.637
1.623
1.618
1.647
1.672
1.657
1.652
1.681
1.691
1.676
1.662
1.667
1.691
1.672
1.647
1.657
1.681
1.691
1.676
1.676
1.696
1.691
1.657
1.647
1.667
1.672
1.657
1.652
1.672
1.691
1.672
1.662
1.676
1.681
1.662
1.647
1.667
1.701
1.686
1.657
1.662
1.676
1.672
1.657
1.647
1.667
1.662
1.637
1.642
1.676
1.686
1.676
1.672
1.691
1.696
1.662
1.647
1.667
1.686
1.676
1.657
1.667
1.686
1.672
1.647
1.662
1.681
1.676
1.657
1.657
1.681
1.686
1.662
1.662
1.681
1.686
1.667
1.652
1.667
1.686
1.657
1.647
1.662
1.681
1.676
1.662
1.662
1.676
1.657
1.632
1.642
1.667
1.667
1.652
1.662
1.696
1.701
1.662
1.657
1.676
1.681
1.662
1.652
1.672
1.691
1.672
1.657
1.681
1.696
1.686
1.672
1.681
1.701
1.686
1.657
1.672
1.696
1.701
1.686
1.686
1.711
1.72
1.696
1.701
1.725
1.735
1.72
1.711
1.72
1.73
1.696
1.676
1.691
1.711
1.706
1.701
1.711
1.73
1.716
1.681
1.676
1.676
1.662
1.637
1.632
1.652
1.657
1.632
1.637
1.667
1.686
1.676
1.672
1.686
1.696
1.672
1.657
1.676
1.691
1.681
1.657
1.662
1.681
1.667
1.637
1.642
1.657
1.647
1.632
1.632
1.667
1.672
1.652
1.657
1.686
1.706
1.711
1.716
1.75
1.784
1.774
1.779
1.813
1.857
1.877
1.901
1.95
2.014
2.023
2.009
2.004
1.994
1.945
1.862
1.779
1.72
1.642
1.559
1.52
1.53
1.535
1.535
1.544
1.588
1.632
1.628
1.632
1.662
1.681
1.672
1.652
1.652
1.672
1.662
1.632
1.637
1.662
1.662
1.647
1.647
1.672
1.686
1.657
1.657
1.681
1.691
1.676
1.662
1.667
1.667
1.632
1.613
1.632
1.657
1.657
1.657
1.672
1.701
1.691
1.672
1.686
1.711
1.706
1.691
1.686
1.706
1.706
1.672
1.667
1.681
1.686
1.672
1.667
1.681
1.706
1.691
1.676
1.696
1.711
1.701
1.691
1.701
1.725
1.72
1.701
1.706
1.725
1.72
1.701
1.696
1.711
1.711
1.681
1.681
1.711
1.716
1.701
1.696
1.716
1.73
1.706
1.696
1.72
1.74
1.73
1.711
1.716
1.74
1.725
1.706
1.72
1.75
1.755
1.75
1.745
1.764
1.764
1.735
1.73
1.75
1.764
1.755
1.745
1.76
1.769
1.735
1.711
1.72
1.73
1.72
1.711
1.725
1.755
1.75
1.725
1.73
1.75
1.75
1.73
1.716
1.72
1.711
1.676
1.667
1.681
1.681
1.667
1.662
1.686
1.711
1.686
1.662
1.672
1.681
1.672
1.652
1.657
1.676
1.662
1.632
1.637
1.657
1.657
1.642
1.642
1.667
1.672
1.642
1.642
1.662
1.662
1.647
1.632
1.652
1.667
1.637
1.623
1.637
1.652
1.647
1.632
1.642
1.667
1.652
1.632
1.647
1.676
1.676
1.662
1.657
1.681
1.681
1.647
1.637
1.657
1.657
1.642
1.628
1.652
1.672
1.652
1.637
1.657
1.672
1.662
1.642
1.647
1.676
1.662
1.632
1.637
1.657
1.657
1.642
1.642
1.667
1.676
1.647
1.647
1.672
1.676
1.662
1.647
1.657
1.672
1.642
1.632
1.657
1.676
1.667
1.647
1.652
1.676
1.672
1.642
1.647
1.667
1.667
1.652
1.652
1.676
1.681
1.647
1.647
1.672
1.686
1.672
1.657
1.672
1.686
1.662
1.642
1.657
1.672
1.662
1.642
1.647
1.667
1.652
1.623
1.637
1.667
1.672
1.662
1.662
1.686
1.691
1.662
1.657
1.676
1.686
1.672
1.662
1.676
1.686
1.652
1.632
1.647
1.662
1.657
1.642
1.657
1.686
1.681
1.662
1.667
1.681
1.672
1.652
1.647
1.667
1.672
1.642
1.642
1.662
1.672
1.657
1.642
1.662
1.681
1.662
1.647
1.667
1.681
1.672
1.657
1.662
1.681
1.667
1.637
1.642
1.662
1.662
1.652
1.657
1.686
1.691
1.667
1.667
1.701
1.716
1.711
1.706
1.72
1.735
1.706
1.686
1.701
1.711
1.711
1.696
1.701
1.72
1.706
1.676
1.681
1.701
1.701
1.676
1.672
1.696
1.701
1.672
1.672
1.686
1.686
1.672
1.657
1.672
1.681
1.652
1.632
1.647
1.667
1.662
1.647
1.652
1.672
1.662
1.637
1.647
1.672
1.667
1.652
1.647
1.672
1.676
1.647
1.642
1.662
1.667
1.652
1.642
1.657
1.672
1.647
1.632
1.647
1.667
1.667
1.662
1.686
1.725
1.74
1.735
1.764
1.813
1.843
1.872
1.916
1.979
2.014
2.004
2.009
2.023
2.009
1.95
1.877
1.818
1.755
1.662
1.579
1.54
1.525
1.5
1.486
1.51
1.559
1.579
1.584
1.628
1.672
1.681
1.672
1.662
1.672
1.667
1.632
1.632
1.662
1.667
1.647
1.637
1.652
1.672
1.652
1.632
1.647
1.662
1.657
1.642
1.652
1.676
1.667
1.642
1.642
1.657
1.657
1.647
1.652
1.681
1.691
1.667
1.662
1.686
1.701
1.691
1.676
1.686
1.701
1.681
1.662
1.681
1.696
1.691
1.681
1.686
1.706
1.696
1.672
1.676
1.701
1.701
1.691
1.691
1.716
1.716
1.681
1.676
1.696
1.701
1.691
1.686
1.711
1.725
1.706
1.691
1.711
1.72
1.711
1.691
1.686
1.706
1.701
1.686
1.711
1.745
1.75
1.74
1.74
1.76
1.76
1.716
1.701
1.72
1.73
1.72
1.716
1.725
1.75
1.725
1.711
1.735
1.755
1.75
1.74
1.75
1.774
1.764
1.725
1.725
1.735
1.73
1.711
1.716
1.75
1.764
1.74
1.73
1.745
1.745
1.73
1.711
1.716
1.72
1.691
1.672
1.691
1.706
1.696
1.676
1.681
1.701
1.686
1.657
1.667
1.691
1.691
1.672
1.662
1.676
1.681
1.642
1.642
1.662
1.672
1.657
1.642
1.662
1.681
1.662
1.642
1.652
1.662
1.652
1.637
1.647
1.672
1.662
1.632
1.637
1.662
1.662
1.642
1.632
1.652
1.657
1.632
1.632
1.657
1.667
1.652
1.637
1.652
1.667
1.642
1.623
1.632
1.652
1.652
1.642
1.657
1.691
1.691
1.672
1.676
1.696
1.691
1.662
1.647
1.662
1.662
1.628
1.623
1.647
1.667
1.662
1.657
1.672
1.686
1.657
1.632
1.642
1.657
1.647
1.632
1.642
1.676
1.667
1.642
1.647
1.672
1.667
1.652
1.647
1.667
1.672
1.642
1.637
1.652
1.662
1.652
1.647
1.667
1.686
1.667
1.652
1.667
1.686
1.676
1.657
1.667
1.691
1.681
1.652
1.657
1.672
1.676
1.657
1.652
1.672
1.681
1.652
1.652
1.676
1.691
1.681
1.672
1.681
1.691
1.667
1.647
1.662
1.676
1.667
1.652
1.657
1.676
1.667
1.637
1.642
1.662
1.662
1.642
1.632
1.652
1.662
1.642
1.642
1.676
1.701
1.696
1.681
1.686
1.696
1.667
1.642
1.652
1.657
1.652
1.642
1.662
1.696
1.686
1.657
1.657
1.672
1.672
1.657
1.652
1.676
1.681
1.657
1.652
1.676
1.691
1.676
1.657
1.662
1.676
1.647
1.628
1.642
1.667
1.667
1.662
1.672
1.696
1.686
1.657
1.662
1.686
1.681
1.667
1.667
1.696
1.711
1.691
1.691
1.716
1.725
1.711
1.701
1.716
1.735
1.711
1.686
1.701
1.711
1.701
1.681
1.686
1.711
1.701
1.672
1.676
1.696
1.696
1.676
1.667
1.681
1.691
1.657
1.647
1.667
1.676
1.662
1.637
1.642
1.662
1.642
1.632
1.657
1.681
1.672
1.657
1.657
1.676
1.662
1.628
1.628
1.652
1.667
1.672
1.676
1.696
1.701
1.662
1.647
1.652
1.652
1.642
1.637
1.676
1.716
1.72
1.725
1.769
1.813
1.838
1.852
1.882
1.94
1.97
1.975
1.999
2.023
2.014
1.979
1.935
1.901
1.833
1.725
1.642
1.603
1.569
1.525
1.505
1.53
1.569
1.569
1.574
1.613
1.652
1.662
1.642
1.637
1.657
1.652
1.628
1.637
1.662
1.667
1.657
1.652
1.676
1.681
1.647
1.632
1.652
1.667
1.657
1.642
1.652
1.667
1.642
1.628
1.647
1.672
1.667
1.652
1.662
1.691
1.681
1.647
1.642
1.662
1.667
1.657
1.657
1.686
1.706
1.681
1.681
1.701
1.706
1.686
1.667
1.672
1.686
1.667
1.647
1.667
1.686
1.691
1.681
1.696
1.725
1.72
1.696
1.701
1.725
1.725
1.711
1.701
1.716
1.716
1.681
1.672
1.691
1.711
1.706
1.696
1.716
1.74
1.72
1.706
1.72
1.735
1.725
1.711
1.716
1.74
1.74
1.716
1.72
1.745
1.75
1.74
1.73
1.75
1.75
1.72
1.716
1.74
1.755
1.745
1.735
1.75
1.769
1.745
1.72
1.725
1.74
1.73
1.711
1.716
1.74
1.735
1.711
1.716
1.735
1.73
1.711
1.706
1.73
1.735
1.706
1.691
1.706
1.711
1.691
1.676
1.681
1.696
1.672
1.652
1.667
1.691
1.686
1.672
1.672
1.686
1.676
1.637
1.637
1.657
1.667
1.657
1.652
1.681
1.686
1.652
1.637
1.652
1.662
1.642
1.628
1.642
1.657
1.637
1.618
1.632
1.652
1.642
1.628
1.628
1.652
1.657
1.642
1.652
1.676
1.676
1.652
1.642
1.662
1.672
1.642
1.632
1.652
1.662
1.657
1.642
1.652
1.667
1.657
1.637
1.652
1.672
1.672
1.652
1.657
1.672
1.657
1.623
1.618
1.642
1.652
1.642
1.647
1.676
1.701
1.676
1.662
1.672
1.676
1.652
1.632
1.642
1.662
1.642
1.628
1.652
1.681
1.686
1.676
1.676
1.701
1.681
1.647
1.637
1.657
1.657
1.647
1.647
1.681
1.701
1.676
1.667
1.691
1.696
1.681
1.662
1.662
1.672
1.647
1.628
1.652
1.676
1.672
1.647
1.647
1.667
1.662
1.632
1.642
1.667
1.676
1.667
1.667
1.691
1.701
1.672
1.657
1.672
1.676
1.657
1.642
1.657
1.676
1.652
1.632
1.642
1.667
1.667
1.652
1.662
1.691
1.691
1.667
1.667
1.686
1.686
1.662
1.652
1.667
1.676
1.647
1.632
1.657
1.672
1.667
1.652
1.667
1.691
1.667
1.652
1.667
1.691
1.691
1.686
1.696
1.72
1.716
1.686
1.686
1.706
1.706
1.691
1.686
1.711
1.725
1.701
1.691
1.711
1.72
1.711
1.696
1.701
1.716
1.686
1.662
1.672
1.681
1.672
1.647
1.642
1.662
1.652
1.632
1.642
1.667
1.667
1.657
1.652
1.681
1.691
1.657
1.637
1.647
1.652
1.642
1.637
1.657
1.681
1.667
1.647
1.662
1.681
1.672
1.652
1.642
1.657
1.647
1.628
1.637
1.681
1.711
1.725
1.74
1.774
1.794
1.779
1.784
1.823
1.867
1.887
1.916
1.965
2.014
2.009
1.984
1.979
1.96
1.891
1.794
1.706
1.652
1.584
1.51
1.491
1.505
1.515
1.52
1.54
1.584
1.618
1.603
1.608
1.637
1.657
1.647
1.637
1.657
1.681
1.667
1.647
1.662
1.676
1.667
1.652
1.657
1.681
1.681
1.652
1.652
1.681
1.686
1.676
1.667
1.691
1.706
1.672
1.662
1.676
1.686
1.672
1.662
1.681
1.701
1.676
1.652
1.667
1.686
1.686
1.672
1.676
1.706
1.716
1.691
1.691
1.716
1.716
1.696
1.686
1.701
1.711
1.681
1.667
1.686
1.701
1.691
1.681
1.696
1.72
1.706
1.686
1.696
1.72
1.725
1.716
1.72
1.75
1.75
1.72
1.725
1.75
1.755
1.735
1.716
1.725
1.73
1.701
1.691
1.716
1.735
1.735
1.725
1.745
1.764
1.75
1.725
1.735
1.755
1.755
1.74
1.745
1.774
1.774
1.745
1.75
1.769
1.769
1.75
1.735
1.755
1.764
1.74
1.725
1.75
1.769
1.764
1.745
1.745
1.75
1.72
1.686
1.691
1.701
1.696
1.681
1.686
1.72
1.725
1.701
1.706
1.725
1.72
1.696
1.676
1.681
1.686
1.647
1.628
1.652
1.667
1.657
1.647
1.662
1.686
1.672
1.647
1.657
1.667
1.657
1.637
1.637
1.657
1.652
1.628
1.632
1.657
1.667
1.662
1.652
1.672
1.681
1.647
1.628
1.647
1.657
1.647
1.632
1.647
1.672
1.662
1.637
1.652
1.672
1.672
1.662
1.662
1.676
1.667
1.632
1.628
1.647
1.652
1.632
1.628
1.657
1.686
1.667
1.657
1.672
1.681
1.672
1.652
1.657
1.672
1.652
1.637
1.647
1.672
1.662
1.647
1.652
1.676
1.676
1.652
1.652
1.681
1.691
1.686
1.676
1.691
1.696
1.667
1.652
1.672
1.691
1.681
1.672
1.686
1.706
1.681
1.652
1.662
1.676
1.667
1.652
1.652
1.681
1.681
1.652
1.647
1.676
1.681
1.667
1.657
1.672
1.681
1.657
1.647
1.667
1.681
1.672
1.662
1.681
1.701
1.691
1.672
1.686
1.701
1.691
1.667
1.662
1.676
1.667
1.632
1.623
1.647
1.662
1.662
1.662
1.686
1.701
1.667
1.652
1.657
1.667
1.652
1.647
1.667
1.691
1.681
1.662
1.672
1.691
1.686
1.667
1.667
1.691
1.696
1.672
1.676
1.706
1.72
1.711
1.696
1.716
1.725
1.701
1.686
1.711
1.725
1.716
1.701
1.711
1.735
1.72
1.691
1.696
1.716
1.711
1.696
1.696
1.716
1.711
1.672
1.662
1.676
1.672
1.647
1.637
1.662
1.676
1.647
1.632
1.652
1.662
1.647
1.632
1.647
1.672
1.662
1.647
1.667
1.691
1.686
1.667
1.662
1.676
1.672
1.642
1.642
1.667
1.676
1.657
1.647
1.657
1.667
1.642
1.637
1.672
1.711
1.72
1.735
1.76
1.799
1.804
1.804
1.843
1.896
1.931
1.955
1.994
2.043
2.053
2.014
1.979
1.955
1.891
1.794
1.696
1.632
1.584
1.515
1.486
1.5
1.525
1.54
1.559
1.603
1.652
1.662
1.647
1.662
1.681
1.676
1.652
1.647
1.672
1.667
1.632
1.628
1.647
1.657
1.652
1.647
1.676
1.696
1.672
1.652
1.667
1.686
1.676
1.652
1.662
1.681
1.667
1.642
1.657
1.681
1.686
1.667
1.662
1.681
1.676
1.647
1.647
1.672
1.681
1.667
1.662
1.681
1.701
1.681
1.672
1.696
1.716
1.711
1.696
1.696
1.711
1.696
1.676
1.686
1.701
1.701
1.686
1.686
1.711
1.716
1.691
1.696
1.72
1.73
1.716
1.711
1.73
1.745
1.711
1.686
1.691
1.706
1.701
1.691
1.706
1.73
1.72
1.701
1.711
1.73
1.73
1.725
1.74
1.769
1.769
1.74
1.735
1.755
1.76
1.74
1.72
1.73
1.745
1.725
1.716
1.74
1.75
1.735
1.716
1.725
1.755
1.745
1.725
1.73
1.755
1.755
1.735
1.73
1.745
1.745
1.711
1.701
1.716
1.72
1.706
1.696
1.706
1.716
1.681
1.662
1.681
1.701
1.696
1.681
1.686
1.701
1.681
1.647
1.657
1.672
1.667
1.642
1.632
1.647
1.657
1.632
1.632
1.657
1.667
1.657
1.647
1.672
1.686
1.662
1.632
1.642
1.652
1.647
1.637
1.647
1.676
1.667
1.647
1.657
1.681
1.672
1.652
1.642
1.662
1.657
1.628
1.623
1.652
1.662
1.652
1.642
1.667
1.681
1.657
1.642
1.662
1.676
1.667
1.657
1.662
1.676
1.652
1.618
1.628
1.652
1.662
1.652
1.652
1.681
1.691
1.672
1.667
1.681
1.676
1.657
1.647
1.662
1.676
1.647
1.637
1.657
1.681
1.681
1.667
1.676
1.696
1.681
1.652
1.652
1.662
1.657
1.637
1.637
1.662
1.667
1.642
1.647
1.672
1.686
1.676
1.672
1.691
1.706
1.681
1.662
1.676
1.681
1.667
1.647
1.652
1.676
1.667
1.647
1.657
1.686
1.691
1.672
1.667
1.681
1.676
1.637
1.628
1.657
1.672
1.662
1.657
1.672
1.686
1.657
1.642
1.652
1.662
1.647
1.637
1.647
1.681
1.676
1.657
1.667
1.686
1.681
1.662
1.657
1.681
1.686
1.657
1.657
1.686
1.696
1.681
1.662
1.672
1.691
1.667
1.647
1.667
1.691
1.686
1.672
1.676
1.706
1.706
1.686
1.701
1.72
1.72
1.716
1.72
1.745
1.745
1.706
1.691
1.706
1.711
1.696
1.681
1.696
1.706
1.681
1.672
1.696
1.706
1.691
1.667
1.676
1.686
1.667
1.628
1.628
1.652
1.662
1.657
1.662
1.696
1.701
1.672
1.662
1.672
1.672
1.647
1.632
1.642
1.657
1.637
1.623
1.647
1.667
1.662
1.652
1.662
1.681
1.667
1.637
1.642
1.662
1.662
1.647
1.647
1.676
1.701
1.686
1.706
1.755
1.789
1.799
1.818
1.862
1.916
1.931
1.95
1.994
2.023
2.028
1.999
1.975
1.95
1.882
1.779
1.711
1.667
1.608
1.549
1.51
1.525
1.54
1.53
1.554
1.603
1.637
1.647
1.647
1.672
1.681
1.652
1.628
1.637
1.652
1.647
1.632
1.642
1.672
1.662
1.637
1.642
1.667
1.667
1.657
1.662
1.681
1.676
1.642
1.637
1.657
1.667
1.662
1.657
1.672
1.691
1.667
1.652
1.662
1.676
1.667
1.657
1.672
1.696
1.691
1.667
1.676
1.696
1.696
1.681
1.681
1.706
1.716
1.686
1.676
1.701
1.706
1.691
1.672
1.681
1.696
1.672
1.667
1.696
1.72
1.716
1.701
1.706
1.73
1.72
1.696
1.701
1.725
1.725
1.711
1.711
1.725
1.73
1.696
1.691
1.711
1.72
1.711
1.706
1.725
1.745
1.725
1.706
1.72
1.735
1.73
1.72
1.725
1.745
1.725
1.701
1.711
1.745
1.755
1.745
1.745
1.774
1.784
1.755
1.745
1.755
1.755
1.74
1.725
1.74
1.76
1.74
1.725
1.735
1.755
1.74
1.716
1.716
1.735
1.72
1.686
1.686
1.711
1.711
1.696
1.686
1.701
1.701
1.672
1.662
1.681
1.686
1.672
1.657
1.672
1.686
1.657
1.632
1.642
1.657
1.647
1.632
1.642
1.672
1.672
1.652
1.652
1.672
1.667
1.642
1.637
1.657
1.667
1.642
1.637
1.662
1.676
1.667
1.657
1.667
1.681
1.652
1.632
1.647
1.662
1.652
1.637
1.647
1.676
1.672
1.642
1.652
1.667
1.662
1.642
1.628
1.642
1.652
1.618
1.618
1.647
1.662
1.647
1.632
1.647
1.667
1.647
1.632
1.652
1.676
1.676
1.662
1.667
1.691
1.681
1.652
1.657
1.681
1.686
1.676
1.667
1.681
1.681
1.642
1.632
1.652
1.667
1.662
1.652
1.676
1.696
1.672
1.652
1.667
1.681
1.667
1.642
1.647
1.672
1.667
1.642
1.647
1.662
1.662
1.652
1.652
1.681
1.691
1.662
1.647
1.662
1.672
1.667
1.652
1.662
1.676
1.657
1.647
1.667
1.691
1.686
1.672
1.676
1.691
1.672
1.642
1.652
1.676
1.676
1.667
1.667
1.686
1.691
1.657
1.647
1.662
1.672
1.657
1.647
1.662
1.681
1.667
1.652
1.667
1.681
1.676
1.662
1.667
1.686
1.676
1.647
1.652
1.676
1.676
1.657
1.652
1.672
1.686
1.667
1.657
1.676
1.691
1.681
1.667
1.681
1.701
1.676
1.657
1.672
1.696
1.701
1.696
1.701
1.716
1.701
1.667
1.667
1.686
1.686
1.662
1.662
1.691
1.711
1.686
1.676
1.701
1.716
1.711
1.711
1.73
1.755
1.735
1.716
1.725
1.74
1.725
1.691
1.691
1.701
1.681
1.647
1.642
1.657
1.652
1.642
1.642
1.672
1.691
1.667
1.657
1.681
1.681
1.662
1.632
1.637
1.647
1.628
1.618
1.642
1.672
1.667
1.652
1.657
1.676
1.662
1.628
1.632
1.657
1.672
1.662
1.662
1.681
1.691
1.667
1.667
1.696
1.716
1.72
1.73
1.774
1.823
1.833
1.848
1.896
1.95
1.975
1.984
2.004
2.028
2.014
1.965
1.926
1.887
1.813
1.72
1.637
1.593
1.554
1.496
1.476
1.51
1.544
1.569
1.588
1.637
1.676
1.667
1.652
1.662
1.676
1.667
1.652
1.657
1.672
1.657
1.623
1.618
1.642
1.647
1.642
1.642
1.662
1.667
1.637
1.637
1.662
1.676
1.672
1.662
1.676
1.701
1.681
1.662
1.667
1.676
1.667
1.647
1.652
1.676
1.676
1.657
1.667
1.691
1.691
1.672
1.667
1.691
1.706
1.681
1.676
1.696
1.701
1.691
1.672
1.676
1.696
1.681
1.667
1.691
1.716
1.711
1.696
1.701
1.72
1.706
1.676
1.676
1.701
1.716
1.711
1.711
1.735
1.755
1.73
1.725
1.735
1.735
1.711
1.701
1.711
1.735
1.716
1.696
1.711
1.73
1.73
1.72
1.72
1.75
1.745
1.72
1.72
1.745
1.75
1.735
1.73
1.745
1.75
1.72
1.711
1.73
1.745
1.735
1.725
1.74
1.76
1.745
1.73
1.75
1.774
1.769
1.75
1.735
1.74
1.72
1.676
1.672
1.691
1.696
1.686
1.681
1.701
1.716
1.696
1.686
1.696
1.701
1.681
1.662
1.667
1.681
1.657
1.637
1.647
1.667
1.662
1.657
1.667
1.701
1.691
1.652
1.652
1.667
1.667
1.647
1.642
1.667
1.681
1.667
1.662
1.686
1.691
1.676
1.652
1.652
1.667
1.637
1.613
1.618
1.637
1.632
1.623
1.637
1.662
1.657
1.632
1.637
1.657
1.662
1.647
1.642
1.662
1.672
1.642
1.628
1.652
1.667
1.657
1.647
1.657
1.681
1.662
1.637
1.647
1.672
1.672
1.662
1.667
1.686
1.676
1.647
1.652
1.681
1.681
1.667
1.657
1.672
1.676
1.642
1.632
1.652
1.667
1.652
1.642
1.667
1.696
1.681
1.652
1.652
1.657
1.642
1.618
1.618
1.642
1.647
1.628
1.642
1.681
1.691
1.672
1.662
1.676
1.681
1.652
1.647
1.672
1.691
1.686
1.676
1.681
1.696
1.667
1.642
1.652
1.667
1.662
1.642
1.652
1.676
1.676
1.647
1.652
1.681
1.686
1.672
1.667
1.691
1.701
1.667
1.642
1.657
1.662
1.652
1.642
1.657
1.676
1.657
1.628
1.637
1.652
1.642
1.628
1.628
1.657
1.657
1.637
1.652
1.691
1.701
1.676
1.662
1.672
1.681
1.652
1.642
1.667
1.681
1.672
1.662
1.676
1.701
1.681
1.652
1.652
1.667
1.667
1.657
1.672
1.706
1.711
1.681
1.686
1.711
1.716
1.696
1.681
1.696
1.711
1.686
1.667
1.681
1.696
1.691
1.676
1.686
1.701
1.681
1.662
1.676
1.696
1.696
1.681
1.676
1.696
1.691
1.657
1.652
1.672
1.676
1.657
1.647
1.667
1.681
1.647
1.637
1.662
1.672
1.657
1.647
1.657
1.681
1.667
1.642
1.657
1.676
1.672
1.657
1.652
1.667
1.652
1.618
1.618
1.637
1.647
1.637
1.637
1.662
1.681
1.657
1.647
1.672
1.696
1.691
1.686
1.716
1.755
1.764
1.764
1.799
1.848
1.877
1.896
1.935
1.984
2.004
1.979
1.975
1.97
1.931
1.857
1.779
1.72
1.662
1.579
1.52
1.515
1.525
1.52
1.52
1.549
1.593
1.603
1.603
1.628
1.662
1.662
1.637
1.637
1.662
1.657
1.632
1.637
1.662
1.672
1.667
1.662
1.681
1.686
1.647
1.632
1.647
1.662
1.657
1.647
1.667
1.701
1.686
1.667
1.691
1.711
1.701
1.672
1.667
1.686
1.681
1.647
1.642
1.662
1.667
1.652
1.652
1.681
1.701
1.676
1.667
1.686
1.701
1.696
1.681
1.691
1.711
1.686
1.662
1.676
1.701
1.706
1.691
1.701
1.73
1.74
1.711
1.711
1.73
1.725
1.706
1.696
1.711
1.72
1.691
1.681
1.706
1.73
1.73
1.72
1.74
1.764
1.755
1.73
1.735
1.75
1.74
1.72
1.716
1.73
1.73
1.696
1.701
1.725
1.735
1.72
1.711
1.735
1.75
1.725
1.72
1.75
1.764
1.755
1.75
1.76
1.774
1.75
1.716
1.72
1.735
1.73
1.716
1.716
1.74
1.745
1.72
1.725
1.745
1.745
1.725
1.711
1.725
1.73
1.701
1.686
1.706
1.716
1.706
1.686
1.691
1.701
1.676
1.637
1.642
1.662
1.662
1.652
1.652
1.676
1.676
1.642
1.642
1.657
1.662
1.647
1.642
1.657
1.676
1.657
1.647
1.667
1.681
1.667
1.642
1.647
1.662
1.642
1.623
1.637
1.662
1.657
1.637
1.632
1.652
1.652
1.618
1.613
1.632
1.647
1.642
1.642
1.667
1.686
1.657
1.637
1.647
1.662
1.652
1.632
1.637
1.657
1.647
1.632
1.647
1.662
1.662
1.642
1.647
1.676
1.686
1.657
1.647
1.667
1.676
1.672
1.662
1.681
1.696
1.667
1.657
1.667
1.676
1.662
1.642
1.647
1.667
1.642
1.623
1.642
1.676
1.681
1.667
1.667
1.691
1.696
1.667
1.662
1.686
1.686
1.676
1.667
1.686
1.701
1.672
1.652
1.667
1.676
1.662
1.647
1.652
1.667
1.657
1.637
1.657
1.681
1.681
1.662
1.662
1.676
1.672
1.637
1.637
1.657
1.667
1.662
1.657
1.681
1.696
1.667
1.647
1.662
1.672
1.662
1.642
1.647
1.667
1.657
1.642
1.662
1.686
1.686
1.672
1.672
1.696
1.691
1.652
1.647
1.667
1.681
1.672
1.662
1.676
1.691
1.662
1.647
1.657
1.667
1.662
1.652
1.667
1.696
1.686
1.667
1.676
1.696
1.691
1.672
1.667
1.686
1.681
1.652
1.657
1.691
1.706
1.696
1.691
1.716
1.74
1.72
1.716
1.73
1.74
1.725
1.701
1.706
1.72
1.706
1.672
1.676
1.691
1.686
1.672
1.676
1.696
1.691
1.652
1.642
1.667
1.676
1.662
1.652
1.667
1.681
1.652
1.637
1.657
1.676
1.672
1.652
1.657
1.681
1.672
1.647
1.652
1.667
1.657
1.642
1.642
1.667
1.667
1.637
1.637
1.657
1.662
1.647
1.637
1.657
1.676
1.657
1.652
1.686
1.711
1.72
1.72
1.745
1.789
1.804
1.813
1.857
1.916
1.955
1.979
2.004
2.038
2.033
1.984
1.945
1.921
1.862
1.764
1.667
1.618
1.579
1.52
1.486
1.505
1.535
1.559
1.579
1.623
1.672
1.667
1.642
1.647
1.662
1.652
1.628
1.628
1.647
1.652
1.628
1.632
1.657
1.667
1.657
1.647
1.667
1.686
1.652
1.637
1.657
1.667
1.657
1.652
1.672
1.701
1.686
1.657
1.667
1.686
1.681
1.662
1.657
1.681
1.681
1.647
1.642
1.667
1.676
1.667
1.662
1.676
1.691
1.662
1.652
1.676
1.696
1.691
1.681
1.691
1.72
1.706
1.676
1.681
1.696
1.691
1.672
1.676
1.701
1.706
1.681
1.686
1.716
1.725
1.72
1.716
1.735
1.75
1.72
1.706
1.72
1.73
1.72
1.701
1.706
1.735
1.725
1.711
1.725
1.75
1.745
1.72
1.716
1.73
1.735
1.706
1.706
1.73
1.735
1.72
1.711
1.725
1.735
1.716
1.701
1.72
1.74
1.74
1.735
1.75
1.769
1.755
1.72
1.72
1.74
1.735
1.72
1.725
1.745
1.75
1.711
1.701
1.716
1.716
1.696
1.681
1.696
1.711
1.691
1.681
1.701
1.711
1.696
1.676
1.676
1.691
1.672
1.637
1.642
1.662
1.662
1.652
1.652
1.672
1.667
1.632
1.623
1.637
1.647
1.632
1.628
1.652
1.676
1.652
1.642
1.662
1.676
1.667
1.637
1.642
1.662
1.647
1.628
1.642
1.667
1.667
1.662
1.662
1.676
1.672
1.632
1.618
1.632
1.637
1.623
1.618
1.637
1.667
1.657
1.647
1.672
1.686
1.676
1.657
1.657
1.676
1.662
1.637
1.652
1.681
1.681
1.662
1.647
1.662
1.662
1.628
1.623
1.652
1.667
1.657
1.657
1.676
1.696
1.662
1.642
1.652
1.662
1.647
1.642
1.662
1.701
1.696
1.672
1.676
1.691
1.681
1.657
1.652
1.662
1.657
1.623
1.628
1.662
1.681
1.681
1.672
1.691
1.706
1.681
1.662
1.672
1.681
1.667
1.647
1.657
1.681
1.672
1.652
1.662
1.686
1.676
1.657
1.647
1.672
1.676
1.642
1.632
1.652
1.657
1.647
1.642
1.662
1.691
1.676
1.657
1.672
1.681
1.676
1.662
1.672
1.691
1.681
1.657
1.667
1.691
1.691
1.676
1.667
1.676
1.672
1.637
1.637
1.667
1.686
1.676
1.667
1.681
1.696
1.667
1.647
1.662
1.681
1.672
1.657
1.657
1.681
1.676
1.652
1.667
1.691
1.696
1.681
1.676
1.701
1.711
1.672
1.657
1.676
1.681
1.672
1.667
1.696
1.72
1.706
1.691
1.711
1.72
1.711
1.691
1.696
1.716
1.701
1.672
1.681
1.711
1.711
1.696
1.696
1.72
1.725
1.691
1.676
1.691
1.696
1.676
1.667
1.681
1.696
1.667
1.657
1.672
1.686
1.676
1.657
1.652
1.672
1.662
1.642
1.647
1.672
1.672
1.657
1.652
1.672
1.676
1.647
1.642
1.667
1.676
1.672
1.657
1.662
1.676
1.647
1.618
1.628
1.642
1.637
1.628
1.642
1.676
1.681
1.672
1.706
1.75
1.779
1.794
1.823
1.877
1.921
1.931
1.965
2.019
2.043
2.033
2.014
2.004
1.984
1.906
1.813
1.74
1.672
1.598
1.54
1.515
1.52
1.51
1.491
1.525
1.579
1.613
1.628
1.642
1.672
1.686
1.662
1.657
1.672
1.672
1.652
1.632
1.642
1.657
1.632
1.618
1.642
1.667
1.667
1.657
1.662
1.691
1.681
1.652
1.662
1.686
1.686
1.672
1.672
1.696
1.696
1.662
1.647
1.672
1.681
1.672
1.662
1.676
1.701
1.676
1.657
1.667
1.691
1.681
1.667
1.672
1.701
1.696
1.672
1.676
1.701
1.706
1.696
1.691
1.711
1.711
1.676
1.667
1.686
1.696
1.681
1.672
1.696
1.725
1.706
1.691
1.711
1.73
1.72
1.706
1.711
1.735
1.725
1.696
1.701
1.73
1.735
1.72
1.716
1.735
1.74
1.711
1.701
1.72
1.735
1.73
1.73
1.745
1.76
1.735
1.716
1.73
1.75
1.745
1.73
1.73
1.755
1.755
1.73
1.735
1.755
1.75
1.73
1.72
1.735
1.745
1.711
1.696
1.72
1.73
1.716
1.706
1.72
1.745
1.725
1.706
1.72
1.735
1.725
1.706
1.706
1.72
1.701
1.662
1.652
1.667
1.667
1.647
1.637
1.662
1.672
1.642
1.642
1.667
1.676
1.662
1.652
1.667
1.686
1.657
1.637
1.647
1.667
1.657
1.642
1.642
1.667
1.657
1.632
1.642
1.672
1.681
1.662
1.657
1.676
1.681
1.647
1.637
1.657
1.667
1.652
1.642
1.657
1.676
1.657
1.632
1.637
1.657
1.652
1.642
1.642
1.667
1.652
1.628
1.632
1.652
1.657
1.642
1.642
1.662
1.676
1.652
1.652
1.676
1.691
1.676
1.662
1.672
1.691
1.667
1.642
1.652
1.662
1.652
1.637
1.642
1.672
1.676
1.662
1.672
1.686
1.686
1.672
1.667
1.686
1.686
1.652
1.642
1.662
1.672
1.662
1.652
1.667
1.681
1.652
1.632
1.652
1.676
1.672
1.657
1.662
1.686
1.681
1.652
1.657
1.681
1.686
1.676
1.672
1.691
1.691
1.662
1.652
1.672
1.681
1.672
1.662
1.676
1.696
1.672
1.647
1.657
1.672
1.672
1.657
1.662
1.686
1.686
1.662
1.667
1.691
1.691
1.667
1.657
1.676
1.681
1.647
1.628
1.647
1.657
1.647
1.642
1.662
1.686
1.672
1.652
1.667
1.681
1.667
1.647
1.647
1.672
1.672
1.647
1.662
1.686
1.691
1.676
1.672
1.686
1.696
1.667
1.662
1.681
1.691
1.676
1.662
1.681
1.701
1.676
1.657
1.676
1.706
1.706
1.701
1.706
1.735
1.73
1.701
1.706
1.725
1.725
1.711
1.706
1.725
1.73
1.701
1.691
1.706
1.706
1.686
1.662
1.672
1.676
1.652
1.623
1.642
1.662
1.667
1.647
1.657
1.686
1.681
1.652
1.662
1.686
1.681
1.657
1.642
1.657
1.672
1.642
1.632
1.652
1.672
1.667
1.657
1.667
1.681
1.657
1.628
1.637
1.652
1.647
1.637
1.647
1.667
1.662
1.642
1.657
1.691
1.711
1.716
1.73
1.764
1.794
1.784
1.799
1.857
1.911
1.95
1.979
2.028
2.067
2.058
2.019
1.999
1.96
1.882
1.779
1.701
1.647
1.584
1.51
1.491
1.51
1.53
1.54
1.559
1.608
1.642
1.628
1.628
1.652
1.662
1.647
1.632
1.647
1.676
1.667
1.647
1.662
1.681
1.672
1.657
1.662
1.691
1.691
1.652
1.647
1.662
1.662
1.642
1.632
1.647
1.657
1.637
1.637
1.667
1.681
1.676
1.662
1.676
1.691
1.672
1.652
1.667
1.686
1.681
1.667
1.672
1.696
1.686
1.657
1.652
1.667
1.667
1.657
1.652
1.681
1.696
1.672
1.672
1.696
1.711
1.706
1.696
1.706
1.73
1.716
1.696
1.711
1.725
1.725
1.706
1.701
1.72
1.72
1.696
1.701
1.72
1.73
1.716
1.706
1.725
1.725
1.686
1.672
1.691
1.711
1.706
1.706
1.725
1.75
1.735
1.711
1.72
1.74
1.735
1.716
1.72
1.75
1.755
1.725
1.725
1.745
1.745
1.725
1.72
1.735
1.74
1.711
1.706
1.735
1.755
1.74
1.725
1.74
1.764
1.745
1.716
1.725
1.74
1.73
1.706
1.701
1.72
1.725
1.701
1.701
1.72
1.72
1.696
1.676
1.686
1.681
1.642
1.623
1.637
1.647
1.647
1.642
1.657
1.672
1.642
1.608
1.608
1.628
1.623
1.608
1.618
1.647
1.647
1.623
1.628
1.657
1.662
1.652
1.642
1.662
1.676
1.652
1.642
1.657
1.667
1.647
1.623
1.628
1.652
1.637
1.623
1.642
1.667
1.667
1.652
1.662
1.681
1.676
1.637
1.628
1.637
1.632
1.618
1.618
1.647
1.662
1.642
1.637
1.662
1.681
1.676
1.662
1.672
1.686
1.667
1.642
1.652
1.667
1.657
1.632
1.628
1.652
1.652
1.628
1.632
1.657
1.672
1.662
1.652
1.672
1.681
1.652
1.642
1.667
1.676
1.662
1.652
1.662
1.686
1.667
1.642
1.657
1.681
1.681
1.667
1.667
1.686
1.681
1.652
1.657
1.686
1.686
1.662
1.652
1.667
1.672
1.642
1.623
1.642
1.652
1.642
1.637
1.652
1.676
1.657
1.632
1.642
1.667
1.667
1.652
1.657
1.681
1.676
1.647
1.652
1.676
1.681
1.672
1.667
1.691
1.706
1.676
1.662
1.676
1.686
1.681
1.672
1.681
1.701
1.676
1.652
1.657
1.672
1.662
1.647
1.642
1.672
1.676
1.667
1.676
1.701
1.701
1.681
1.667
1.681
1.691
1.652
1.637
1.662
1.686
1.691
1.696
1.711
1.735
1.716
1.686
1.696
1.711
1.711
1.696
1.696
1.72
1.72
1.691
1.686
1.701
1.701
1.676
1.667
1.686
1.691
1.662
1.642
1.662
1.672
1.657
1.632
1.642
1.667
1.657
1.642
1.662
1.686
1.686
1.672
1.662
1.676
1.667
1.628
1.623
1.647
1.657
1.642
1.637
1.657
1.667
1.637
1.623
1.637
1.647
1.632
1.618
1.647
1.686
1.691
1.686
1.711
1.745
1.755
1.75
1.76
1.789
1.808
1.804
1.843
1.906
1.945
1.96
1.97
1.989
1.984
1.926
1.852
1.799
1.735
1.657
1.588
1.559
1.549
1.51
1.481
1.5
1.544
1.569
1.579
1.603
1.647
1.672
1.652
1.657
1.672
1.672
1.652
1.642
1.662
1.672
1.647
1.642
1.667
1.686
1.681
1.662
1.662
1.676
1.657
1.632
1.642
1.667
1.667
1.652
1.657
1.686
1.686
1.657
1.657
1.676
1.681
1.672
1.667
1.691
1.711
1.681
1.667
1.686
1.701
1.691
1.676
1.681
1.701
1.681
1.657
1.667
1.691
1.691
1.676
1.681
1.711
1.716
1.681
1.681
1.711
1.72
1.716
1.706
1.725
1.74
1.716
1.711
1.735
1.745
1.73
1.711
1.72
1.75
1.735
1.706
1.72
1.735
1.73
1.711
1.716
1.745
1.745
1.716
1.72
1.74
1.745
1.735
1.73
1.75
1.764
1.735
1.72
1.74
1.76
1.75
1.735
1.745
1.764
1.745
1.72
1.73
1.76
1.755
1.74
1.735
1.75
1.745
1.711
1.716
1.74
1.75
1.735
1.725
1.74
1.76
1.73
1.711
1.725
1.735
1.72
1.706
1.716
1.735
1.711
1.676
1.681
1.691
1.681
1.657
1.647
1.667
1.667
1.642
1.652
1.681
1.691
1.676
1.667
1.681
1.686
1.652
1.628
1.637
1.647
1.637
1.628
1.647
1.676
1.672
1.652
1.667
1.691
1.681
1.657
1.647
1.662
1.652
1.618
1.618
1.642
1.652
1.647
1.642
1.672
1.686
1.657
1.642
1.657
1.672
1.657
1.642
1.652
1.676
1.657
1.632
1.647
1.672
1.667
1.647
1.647
1.667
1.667
1.632
1.628
1.647
1.657
1.642
1.637
1.662
1.691
1.672
1.662
1.676
1.691
1.676
1.657
1.662
1.681
1.662
1.637
1.642
1.662
1.662
1.647
1.652
1.681
1.686
1.662
1.667
1.696
1.706
1.696
1.686
1.701
1.711
1.676
1.657
1.672
1.686
1.672
1.652
1.657
1.681
1.667
1.637
1.642
1.662
1.662
1.652
1.652
1.676
1.686
1.657
1.657
1.676
1.681
1.667
1.657
1.672
1.686
1.657
1.637
1.652
1.667
1.662
1.657
1.676
1.701
1.686
1.657
1.667
1.686
1.676
1.657
1.652
1.672
1.681
1.662
1.662
1.681
1.686
1.667
1.652
1.667
1.676
1.652
1.637
1.662
1.686
1.691
1.681
1.691
1.706
1.696
1.672
1.686
1.716
1.725
1.716
1.716
1.74
1.74
1.711
1.706
1.725
1.725
1.711
1.696
1.711
1.72
1.686
1.657
1.667
1.672
1.662
1.642
1.647
1.667
1.657
1.637
1.657
1.676
1.676
1.662
1.662
1.686
1.686
1.652
1.647
1.667
1.667
1.647
1.632
1.652
1.667
1.632
1.613
1.632
1.657
1.662
1.657
1.672
1.701
1.691
1.662
1.672
1.686
1.681
1.667
1.676
1.716
1.745
1.735
1.76
1.804
1.838
1.857
1.877
1.931
1.979
1.989
1.994
2.014
2.023
1.984
1.921
1.867
1.818
1.725
1.628
1.574
1.549
1.52
1.486
1.491
1.535
1.564
1.569
1.598
1.657
1.691
1.686
1.681
1.696
1.701
1.667
1.637
1.652
1.667
1.657
1.642
1.647
1.676
1.667
1.637
1.647
1.676
1.676
1.662
1.662
1.686
1.691
1.657
1.652
1.667
1.676
1.662
1.657
1.676
1.691
1.667
1.652
1.672
1.691
1.681
1.662
1.667
1.686
1.686
1.672
1.681
1.701
1.706
1.691
1.696
1.72
1.72
1.691
1.696
1.725
1.74
1.73
1.716
1.725
1.73
1.696
1.672
1.681
1.691
1.686
1.676
1.691
1.72
1.716
1.691
1.706
1.725
1.73
1.711
1.706
1.725
1.725
1.691
1.686
1.706
1.711
1.696
1.691
1.72
1.74
1.725
1.711
1.725
1.745
1.74
1.725
1.74
1.769
1.769
1.75
1.769
1.794
1.789
1.76
1.75
1.764
1.76
1.72
1.711
1.73
1.735
1.725
1.72
1.745
1.764
1.74
1.716
1.73
1.735
1.72
1.691
1.691
1.706
1.691
1.667
1.672
1.691
1.686
1.672
1.667
1.681
1.681
1.647
1.642
1.672
1.686
1.681
1.672
1.681
1.696
1.662
1.637
1.647
1.662
1.657
1.647
1.657
1.686
1.681
1.652
1.657
1.672
1.662
1.642
1.642
1.662
1.667
1.632
1.637
1.672
1.696
1.691
1.672
1.676
1.676
1.637
1.608
1.618
1.632
1.628
1.618
1.628
1.657
1.652
1.632
1.642
1.662
1.662
1.642
1.632
1.652
1.662
1.632
1.632
1.652
1.667
1.662
1.657
1.681
1.701
1.676
1.667
1.681
1.696
1.686
1.667
1.672
1.691
1.676
1.642
1.647
1.662
1.657
1.637
1.642
1.672
1.691
1.672
1.672
1.696
1.701
1.686
1.667
1.672
1.681
1.637
1.608
1.623
1.642
1.647
1.637
1.647
1.681
1.676
1.657
1.667
1.691
1.691
1.672
1.667
1.691
1.701
1.676
1.667
1.681
1.686
1.672
1.657
1.667
1.676
1.647
1.628
1.642
1.662
1.657
1.647
1.657
1.686
1.672
1.647
1.652
1.672
1.676
1.667
1.672
1.696
1.706
1.676
1.667
1.681
1.686
1.672
1.657
1.662
1.676
1.657
1.652
1.681
1.706
1.706
1.696
1.706
1.73
1.72
1.681
1.681
1.696
1.691
1.681
1.681
1.706
1.716
1.696
1.696
1.72
1.73
1.711
1.696
1.711
1.725
1.701
1.681
1.696
1.706
1.696
1.676
1.672
1.691
1.676
1.642
1.647
1.667
1.667
1.652
1.642
1.667
1.672
1.647
1.647
1.672
1.691
1.686
1.672
1.676
1.691
1.662
1.632
1.642
1.662
1.662
1.652
1.662
1.691
1.681
1.647
1.652
1.667
1.667
1.647
1.637
1.662
1.672
1.647
1.657
1.696
1.725
1.735
1.75
1.804
1.857
1.877
1.901
1.955
2.004
2.023
2.019
2.019
2.014
1.97
1.887
1.818
1.76
1.686
1.608
1.554
1.544
1.535
1.51
1.515
1.559
1.593
1.608
1.618
1.642
1.667
1.647
1.623
1.637
1.657
1.657
1.647
1.652
1.681
1.676
1.647
1.652
1.662
1.652
1.632
1.628
1.657
1.667
1.642
1.642
1.667
1.681
1.672
1.662
1.676
1.696
1.667
1.647
1.662
1.681
1.672
1.657
1.662
1.681
1.672
1.652
1.667
1.696
1.696
1.681
1.672
1.691
1.696
1.662
1.652
1.676
1.691
1.681
1.676
1.696
1.716
1.696
1.681
1.696
1.72
1.725
1.711
1.716
1.735
1.725
1.696
1.696
1.716
1.716
1.696
1.691
1.711
1.72
1.696
1.686
1.706
1.716
1.711
1.706
1.73
1.75
1.73
1.72
1.735
1.75
1.745
1.73
1.735
1.76
1.75
1.725
1.73
1.755
1.75
1.725
1.716
1.73
1.74
1.716
1.716
1.74
1.755
1.75
1.74
1.755
1.769
1.74
1.711
1.72
1.74
1.73
1.72
1.725
1.75
1.74
1.706
1.711
1.73
1.725
1.696
1.681
1.696
1.696
1.667
1.652
1.672
1.676
1.667
1.652
1.667
1.681
1.657
1.632
1.647
1.667
1.657
1.637
1.632
1.652
1.642
1.618
1.628
1.652
1.662
1.647
1.642
1.667
1.676
1.647
1.642
1.662
1.676
1.667
1.662
1.681
1.701
1.676
1.652
1.657
1.672
1.657
1.632
1.637
1.667
1.672
1.652
1.662
1.681
1.686
1.672
1.662
1.676
1.676
1.637
1.623
1.642
1.657
1.647
1.637
1.652
1.672
1.647
1.623
1.637
1.662
1.662
1.647
1.647
1.667
1.657
1.628
1.628
1.652
1.652
1.637
1.637
1.662
1.681
1.652
1.647
1.676
1.686
1.676
1.667
1.681
1.701
1.676
1.652
1.657
1.667
1.657
1.647
1.657
1.686
1.681
1.657
1.667
1.691
1.691
1.672
1.657
1.667
1.672
1.642
1.637
1.662
1.686
1.681
1.672
1.686
1.691
1.652
1.618
1.623
1.642
1.637
1.628
1.642
1.676
1.681
1.662
1.676
1.696
1.691
1.667
1.657
1.676
1.686
1.652
1.642
1.662
1.676
1.667
1.652
1.667
1.686
1.667
1.652
1.672
1.701
1.696
1.676
1.681
1.701
1.691
1.652
1.647
1.667
1.667
1.657
1.662
1.691
1.716
1.696
1.691
1.716
1.725
1.711
1.696
1.711
1.725
1.711
1.691
1.711
1.73
1.72
1.696
1.696
1.716
1.706
1.672
1.667
1.686
1.676
1.657
1.647
1.672
1.681
1.657
1.647
1.672
1.681
1.667
1.647
1.652
1.672
1.647
1.628
1.637
1.657
1.657
1.647
1.647
1.667
1.662
1.628
1.628
1.652
1.657
1.652
1.647
1.667
1.676
1.647
1.637
1.657
1.672
1.667
1.657
1.676
1.711
1.706
1.701
1.73
1.764
1.789
1.804
1.852
1.921
1.965
1.979
2.014
2.053
2.053
2.019
1.975
1.935
1.867
1.75
1.657
1.608
1.569
1.52
1.486
1.496
1.525
1.53
1.544
1.593
1.642
1.657
1.662
1.672
1.701
1.696
1.652
1.637
1.657
1.657
1.642
1.628
1.647
1.657
1.632
1.628
1.647
1.667
1.662
1.657
1.667
1.681
1.662
1.637
1.647
1.662
1.657
1.642
1.647
1.676
1.676
1.652
1.652
1.672
1.672
1.657
1.647
1.667
1.681
1.657
1.657
1.676
1.686
1.676
1.662
1.672
1.696
1.681
1.667
1.691
1.711
1.711
1.696
1.691
1.716
1.711
1.676
1.672
1.696
1.701
1.691
1.686
1.711
1.716
1.686
1.676
1.696
1.716
1.706
1.696
1.716
1.735
1.716
1.696
1.706
1.72
1.72
1.711
1.72
1.745
1.74
1.716
1.725
1.75
1.76
1.745
1.73
1.745
1.755
1.725
1.711
1.735
1.755
1.75
1.74
1.755
1.774
1.75
1.72
1.725
1.745
1.74
1.72
1.72
1.745
1.745
1.716
1.711
1.72
1.716
1.696
1.681
1.701
1.716
1.686
1.676
1.696
1.706
1.696
1.676
1.686
1.701
1.681
1.652
1.662
1.681
1.676
1.652
1.652
1.676
1.676
1.647
1.652
1.672
1.672
1.657
1.652
1.672
1.686
1.662
1.652
1.672
1.686
1.676
1.662
1.667
1.676
1.652
1.623
1.632
1.642
1.637
1.623
1.628
1.657
1.657
1.623
1.623
1.647
1.657
1.647
1.647
1.672
1.691
1.667
1.652
1.667
1.676
1.662
1.642
1.647
1.667
1.647
1.628
1.637
1.662
1.667
1.657
1.657
1.676
1.672
1.637
1.637
1.662
1.672
1.662
1.657
1.667
1.676
1.647
1.637
1.657
1.662
1.647
1.632
1.642
1.672
1.667
1.647
1.667
1.681
1.676
1.652
1.647
1.662
1.657
1.623
1.623
1.642
1.657
1.652
1.657
1.686
1.706
1.681
1.662
1.676
1.686
1.672
1.662
1.672
1.691
1.667
1.637
1.647
1.667
1.667
1.652
1.657
1.686
1.681
1.652
1.652
1.676
1.681
1.662
1.642
1.662
1.681
1.657
1.647
1.672
1.686
1.676
1.652
1.662
1.681
1.662
1.637
1.652
1.676
1.676
1.667
1.672
1.696
1.691
1.657
1.657
1.672
1.676
1.667
1.662
1.691
1.716
1.696
1.696
1.725
1.745
1.74
1.73
1.73
1.745
1.72
1.686
1.691
1.711
1.711
1.691
1.686
1.701
1.691
1.647
1.637
1.652
1.657
1.637
1.623
1.647
1.667
1.642
1.637
1.662
1.676
1.662
1.642
1.647
1.672
1.657
1.628
1.637
1.652
1.647
1.628
1.628
1.652
1.652
1.623
1.623
1.642
1.647
1.632
1.623
1.642
1.667
1.647
1.642
1.681
1.716
1.73
1.735
1.764
1.808
1.818
1.823
1.872
1.926
1.955
1.97
1.994
2.023
2.014
1.955
1.911
1.877
1.818
1.73
1.652
1.603
1.569
1.51
1.481
1.5
1.525
1.54
1.549
1.584
1.632
1.642
1.632
1.652
1.676
1.676
1.667
1.667
1.681
1.676
1.637
1.628
1.647
1.652
1.642
1.637
1.662
1.681
1.667
1.657
1.676
1.691
1.676
1.657
1.662
1.686
1.672
1.647
1.657
1.676
1.672
1.657
1.652
1.676
1.681
1.657
1.667
1.696
1.711
1.706
1.701
1.716
1.73
1.701
1.676
1.686
1.691
1.681
1.672
1.691
1.716
1.706
1.681
1.696
1.716
1.706
1.691
1.681
1.706
1.711
1.686
1.686
1.716
1.73
1.73
1.725
1.74
1.75
1.716
1.696
1.711
1.725
1.72
1.706
1.716
1.74
1.73
1.711
1.73
1.755
1.755
1.735
1.735
1.76
1.76
1.72
1.716
1.735
1.745
1.735
1.735
1.76
1.784
1.764
1.745
1.755
1.764
1.75
1.725
1.72
1.73
1.716
1.701
1.72
1.745
1.745
1.735
1.73
1.745
1.735
1.691
1.686
1.701
1.701
1.686
1.681
1.701
1.72
1.696
1.681
1.701
1.711
1.691
1.672
1.676
1.701
1.681
1.647
1.647
1.662
1.657
1.642
1.642
1.667
1.672
1.637
1.632
1.657
1.667
1.652
1.637
1.657
1.672
1.647
1.632
1.647
1.667
1.657
1.642
1.652
1.672
1.662
1.632
1.637
1.657
1.652
1.637
1.637
1.657
1.657
1.628
1.623
1.642
1.652
1.647
1.642
1.662
1.681
1.657
1.647
1.676
1.686
1.672
1.647
1.642
1.662
1.647
1.628
1.642
1.672
1.676
1.662
1.662
1.691
1.691
1.657
1.652
1.672
1.672
1.662
1.652
1.667
1.676
1.647
1.628
1.652
1.681
1.681
1.672
1.681
1.706
1.686
1.657
1.667
1.686
1.686
1.676
1.672
1.691
1.696
1.657
1.652
1.672
1.676
1.662
1.652
1.672
1.691
1.667
1.647
1.662
1.672
1.662
1.647
1.662
1.691
1.686
1.662
1.676
1.691
1.681
1.662
1.652
1.672
1.676
1.647
1.647
1.672
1.686
1.676
1.667
1.691
1.706
1.681
1.662
1.676
1.701
1.706
1.696
1.701
1.716
1.701
1.667
1.681
1.706
1.711
1.696
1.691
1.72
1.735
1.706
1.701
1.711
1.711
1.696
1.686
1.711
1.73
1.706
1.696
1.716
1.725
1.706
1.686
1.681
1.691
1.667
1.632
1.642
1.672
1.672
1.657
1.652
1.676
1.686
1.657
1.652
1.672
1.676
1.657
1.642
1.652
1.667
1.642
1.628
1.652
1.672
1.662
1.647
1.657
1.681
1.667
1.637
1.642
1.662
1.657
1.637
1.632
1.662
1.667
1.652
1.672
1.72
1.755
1.774
1.789
1.843
1.901
1.911
1.931
1.984
2.028
2.033
2.023
2.019
2.004
1.94
1.843
1.774
1.716
1.642
1.574
1.535
1.535
1.535
1.51
1.525
1.569
1.603
1.618
1.632
1.662
1.681
1.657
1.642
1.662
1.681
1.667
1.642
1.647
1.667
1.652
1.628
1.632
1.657
1.662
1.652
1.657
1.686
1.691
1.662
1.657
1.672
1.681
1.672
1.667
1.686
1.701
1.676
1.657
1.672
1.691
1.681
1.667
1.672
1.691
1.676
1.652
1.662
1.691
1.696
1.681
1.681
1.706
1.716
1.686
1.681
1.701
1.711
1.701
1.681
1.696
1.711
1.691
1.676
1.696
1.716
1.711
1.701
1.706
1.735
1.73
1.701
1.706
1.72
1.716
1.701
1.706
1.73
1.735
1.706
1.706
1.73
1.745
1.735
1.73
1.745
1.764
1.745
1.72
1.735
1.755
1.745
1.73
1.735
1.755
1.735
1.701
1.706
1.72
1.72
1.711
1.716
1.75
1.764
1.745
1.75
1.774
1.779
1.76
1.74
1.745
1.75
1.72
1.701
1.72
1.735
1.725
1.706
1.706
1.73
1.725
1.696
1.706
1.73
1.725
1.706
1.696
1.711
1.711
1.672
1.662
1.676
1.686
1.672
1.662
1.681
1.691
1.662
1.632
1.647
1.662
1.662
1.652
1.657
1.681
1.672
1.647
1.652
1.672
1.667
1.642
1.637
1.657
1.672
1.647
1.647
1.672
1.676
1.657
1.632
1.642
1.662
1.637
1.618
1.632
1.662
1.672
1.657
1.662
1.686
1.672
1.637
1.642
1.657
1.662
1.642
1.642
1.667
1.672
1.642
1.632
1.647
1.657
1.647
1.647
1.667
1.691
1.667
1.652
1.672
1.696
1.686
1.662
1.662
1.691
1.691
1.662
1.667
1.681
1.676
1.662
1.657
1.676
1.681
1.647
1.637
1.672
1.686
1.681
1.667
1.676
1.686
1.662
1.647
1.667
1.686
1.681
1.662
1.662
1.686
1.681
1.652
1.657
1.672
1.662
1.642
1.642
1.672
1.681
1.652
1.647
1.676
1.696
1.696
1.686
1.696
1.711
1.676
1.647
1.657
1.672
1.667
1.652
1.662
1.686
1.681
1.652
1.657
1.681
1.691
1.676
1.672
1.696
1.706
1.676
1.667
1.686
1.691
1.672
1.657
1.667
1.681
1.657
1.632
1.652
1.672
1.672
1.662
1.676
1.711
1.711
1.691
1.696
1.72
1.72
1.706
1.696
1.72
1.725
1.696
1.686
1.701
1.711
1.701
1.691
1.711
1.73
1.706
1.686
1.696
1.706
1.686
1.657
1.652
1.662
1.642
1.613
1.623
1.657
1.676
1.676
1.676
1.701
1.706
1.667
1.647
1.657
1.657
1.652
1.642
1.657
1.681
1.662
1.637
1.652
1.667
1.652
1.632
1.632
1.667
1.662
1.642
1.652
1.672
1.672
1.652
1.647
1.676
1.696
1.686
1.701
1.745
1.779
1.794
1.804
1.848
1.901
1.921
1.945
1.994
2.038
2.038
2.009
1.979
1.955
1.877
1.774
1.701
1.657
1.603
1.544
1.515
1.525
1.54
1.54
1.559
1.603
1.637
1.647
1.652
1.672
1.691
1.667
1.637
1.642
1.652
1.647
1.637
1.642
1.662
1.652
1.623
1.632
1.657
1.662
1.652
1.652
1.672
1.681
1.652
1.647
1.672
1.686
1.672
1.662
1.676
1.696
1.672
1.652
1.662
1.681
1.676
1.662
1.672
1.691
1.686
1.652
1.657
1.681
1.691
1.676
1.676
1.696
1.711
1.686
1.676
1.696
1.706
1.691
1.672
1.686
1.716
1.711
1.696
1.711
1.72
1.716
1.696
1.691
1.711
1.696
1.667
1.672
1.696
1.706
1.696
1.696
1.716
1.725
1.696
1.686
1.706
1.725
1.72
1.716
1.735
1.764
1.75
1.725
1.74
1.75
1.735
1.716
1.711
1.73
1.72
1.686
1.691
1.72
1.73
1.725
1.725
1.75
1.755
1.73
1.716
1.735
1.745
1.735
1.72
1.725
1.74
1.716
1.686
1.701
1.711
