Num1
1.706
1.696
1.711
1.72
1.711
1.696
1.701
1.72
1.711
1.701
1.716
1.725
1.72
1.706
1.706
1.725
1.73
1.716
1.72
1.74
1.745
1.74
1.73
1.74
1.74
1.711
1.701
1.72
1.74
1.735
1.72
1.716
1.73
1.725
1.716
1.725
1.73
1.72
1.711
1.716
1.735
1.74
1.72
1.72
1.74
1.745
1.74
1.735
1.75
1.76
1.74
1.73
1.755
1.774
1.774
1.774
1.789
1.808
1.804
1.784
1.794
1.808
1.804
1.789
1.784
1.794
1.794
1.769
1.774
1.794
1.804
1.799
1.789
1.789
1.789
1.764
1.764
1.789
1.799
1.784
1.764
1.769
1.779
1.769
1.745
1.755
1.769
1.764
1.755
1.755
1.769
1.769
1.74
1.74
1.755
1.75
1.735
1.73
1.735
1.745
1.716
1.696
1.706
1.716
1.706
1.691
1.696
1.706
1.686
1.662
1.667
1.681
1.681
1.672
1.667
1.676
1.667
1.632
1.628
1.642
1.642
1.628
1.618
1.623
1.628
1.608
1.608
1.637
1.662
1.657
1.652
1.657
1.667
1.657
1.637
1.637
1.647
1.637
1.628
1.637
1.662
1.676
1.657
1.657
1.667
1.667
1.652
1.642
1.652
1.667
1.652
1.637
1.652
1.667
1.657
1.647
1.647
1.662
1.647
1.628
1.637
1.662
1.662
1.657
1.652
1.662
1.662
1.637
1.637
1.652
1.652
1.642
1.637
1.652
1.667
1.652
1.647
1.672
1.686
1.686
1.681
1.691
1.711
1.706
1.681
1.686
1.696
1.686
1.667
1.657
1.672
1.672
1.647
1.652
1.672
1.681
1.672
1.662
1.676
1.691
1.676
1.667
1.686
1.696
1.686
1.676
1.676
1.686
1.672
1.652
1.662
1.681
1.681
1.672
1.676
1.696
1.701
1.667
1.657
1.667
1.667
1.657
1.647
1.657
1.672
1.657
1.652
1.676
1.696
1.696
1.696
1.706
1.725
1.73
1.72
1.735
1.755
1.75
1.73
1.711
1.701
1.686
1.642
1.628
1.637
1.637
1.637
1.637
1.652
1.667
1.652
1.642
1.652
1.662
1.657
1.647
1.647
1.662
1.652
1.632
1.637
1.647
1.642
1.628
1.623
1.632
1.628
1.608
1.608
1.632
1.647
1.642
1.637
1.647
1.657
1.637
1.618
1.628
1.632
1.623
1.618
1.628
1.647
1.637
1.608
1.608
1.623
1.628
1.623
1.628
1.647
1.667
1.657
1.667
1.696
1.701
1.691
1.676
1.691
1.716
1.716
1.716
1.74
1.755
1.755
1.745
1.745
1.76
1.745
1.711
1.711
1.716
1.691
1.652
1.608
1.584
1.554
1.51
1.5
1.515
1.53
1.535
1.554
1.588
1.628
1.628
1.632
1.657
1.676
1.676
1.676
1.686
1.711
1.716
1.701
1.72
1.745
1.75
1.75
1.75
1.755
1.745
1.716
1.711
1.735
1.74
1.735
1.725
1.735
1.745
1.725
1.711
1.725
1.735
1.73
1.72
1.725
1.75
1.755
1.735
1.745
1.764
1.76
1.745
1.735
1.74
1.74
1.716
1.716
1.74
1.75
1.74
1.725
1.73
1.74
1.72
1.701
1.72
1.745
1.755
1.76
1.769
1.794
1.794
1.769
1.774
1.789
1.784
1.76
1.75
1.76
1.764
1.745
1.75
1.774
1.789
1.794
1.799
1.808
1.823
1.799
1.774
1.779
1.789
1.779
1.769
1.769
1.789
1.794
1.779
1.794
1.818
1.833
1.833
1.833
1.843
1.852
1.823
1.813
1.818
1.813
1.799
1.794
1.799
1.813
1.794
1.774
1.784
1.789
1.774
1.76
1.755
1.755
1.745
1.72
1.735
1.76
1.76
1.75
1.75
1.764
1.769
1.74
1.73
1.74
1.74
1.725
1.711
1.706
1.711
1.691
1.672
1.681
1.686
1.672
1.657
1.657
1.676
1.667
1.637
1.642
1.662
1.662
1.652
1.647
1.652
1.662
1.632
1.623
1.637
1.647
1.637
1.628
1.632
1.642
1.632
1.632
1.657
1.672
1.657
1.637
1.637
1.652
1.652
1.632
1.637
1.652
1.657
1.652
1.647
1.662
1.662
1.637
1.632
1.652
1.657
1.642
1.628
1.637
1.657
1.647
1.637
1.657
1.681
1.676
1.672
1.672
1.676
1.662
1.623
1.623
1.637
1.642
1.647
1.657
1.676
1.691
1.667
1.667
1.681
1.676
1.647
1.618
1.618
1.642
1.642
1.637
1.662
1.691
1.701
1.706
1.706
1.716
1.701
1.667
1.667
1.681
1.681
1.676
1.672
1.686
1.696
1.672
1.672
1.691
1.701
1.691
1.686
1.696
1.711
1.696
1.681
1.691
1.706
1.696
1.686
1.686
1.701
1.701
1.676
1.676
1.691
1.691
1.681
1.686
1.701
1.711
1.696
1.691
1.706
1.716
1.711
1.706
1.706
1.711
1.691
1.667
1.676
1.681
1.662
1.632
1.623
1.632
1.628
1.603
1.613
1.637
1.652
1.647
1.642
1.657
1.662
1.628
1.618
1.632
1.642
1.637
1.632
1.642
1.657
1.647
1.623
1.632
1.642
1.637
1.623
1.623
1.632
1.628
1.603
1.608
1.632
1.637
1.623
1.618
1.632
1.647
1.628
1.623
1.637
1.642
1.632
1.623
1.623
1.628
1.613
1.593
1.613
1.632
1.632
1.628
1.632
1.657
1.662
1.652
1.667
1.696
1.706
1.711
1.711
1.725
1.725
1.691
1.672
1.672
1.652
1.618
1.574
1.549
1.53
1.486
1.447
1.447
1.452
1.452
1.452
1.471
1.515
1.554
1.569
1.598
1.632
1.642
1.642
1.642
1.652
1.657
1.637
1.632
1.652
1.657
1.647
1.637
1.647
1.657
1.637
1.623
1.642
1.662
1.662
1.657
1.657
1.667
1.662
1.637
1.642
1.667
1.672
1.667
1.662
1.672
1.681
1.667
1.662
1.686
1.696
1.691
1.686
1.701
1.711
1.696
1.681
1.686
1.691
1.676
1.667
1.672
1.691
1.696
1.681
1.691
1.711
1.711
1.696
1.691
1.706
1.711
1.691
1.686
1.711
1.73
1.725
1.72
1.73
1.745
1.725
1.701
1.711
1.735
1.745
1.74
1.745
1.76
1.76
1.735
1.745
1.769
1.774
1.764
1.755
1.764
1.774
1.76
1.76
1.784
1.794
1.779
1.769
1.774
1.789
1.779
1.76
1.764
1.779
1.779
1.769
1.764
1.779
1.779
1.75
1.74
1.745
1.735
1.72
1.716
1.72
1.725
1.706
1.696
1.716
1.725
1.711
1.691
1.681
1.681
1.662
1.642
1.647
1.662
1.657
1.652
1.657
1.676
1.672
1.637
1.632
1.642
1.642
1.628
1.623
1.637
1.642
1.623
1.613
1.628
1.637
1.628
1.618
1.623
1.637
1.628
1.608
1.613
1.623
1.613
1.593
1.584
1.598
1.598
1.579
1.593
1.623
1.637
1.637
1.642
1.657
1.662
1.632
1.623
1.637
1.642
1.628
1.613
1.618
1.623
1.603
1.588
1.613
1.642
1.647
1.642
1.647
1.662
1.662
1.637
1.637
1.652
1.652
1.642
1.637
1.652
1.667
1.652
1.642
1.652
1.652
1.637
1.623
1.628
1.642
1.632
1.618
1.637
1.662
1.667
1.652
1.647
1.657
1.647
1.613
1.618
1.637
1.637
1.628
1.623
1.637
1.652
1.632
1.618
1.632
1.647
1.647
1.642
1.652
1.672
1.662
1.642
1.647
1.662
1.657
1.647
1.642
1.657
1.662
1.642
1.642
1.662
1.667
1.652
1.642
1.652
1.667
1.652
1.652
1.672
1.676
1.657
1.642
1.647
1.667
1.662
1.647
1.662
1.681
1.681
1.667
1.657
1.667
1.657
1.623
1.618
1.632
1.632
1.623
1.613
1.623
1.628
1.603
1.593
1.623
1.652
1.657
1.647
1.642
1.642
1.618
1.588
1.588
1.598
1.593
1.588
1.593
1.618
1.628
1.608
1.608
1.618
1.613
1.588
1.574
1.584
1.598
1.588
1.584
1.598
1.613
1.613
1.613
1.618
1.637
1.628
1.608
1.618
1.642
1.642
1.628
1.618
1.623
1.623
1.598
1.598
1.618
1.632
1.628
1.628
1.642
1.662
1.652
1.647
1.676
1.696
1.701
1.696
1.701
1.706
1.676
1.637
1.628
1.618
1.588
1.554
1.53
1.525
1.51
1.481
1.471
1.481
1.486
1.486
1.496
1.53
1.564
1.569
1.579
1.613
1.637
1.637
1.632
1.637
1.657
1.647
1.623
1.628
1.637
1.628
1.613
1.603
1.618
1.618
1.584
1.579
1.603
1.618
1.618
1.618
1.623
1.628
1.608
1.608
1.632
1.642
1.642
1.642
1.657
1.686
1.686
1.667
1.676
1.686
1.676
1.657
1.652
1.667
1.681
1.667
1.676
1.701
1.711
1.701
1.691
1.696
1.706
1.681
1.667
1.686
1.696
1.691
1.681
1.686
1.701
1.686
1.662
1.662
1.681
1.681
1.676
1.681
1.701
1.701
1.686
1.691
1.72
1.735
1.74
1.745
1.76
1.769
1.755
1.745
1.764
1.779
1.774
1.764
1.774
1.794
1.789
1.769
1.784
1.804
1.799
1.794
1.794
1.808
1.813
1.784
1.779
1.794
1.799
1.784
1.764
1.764
1.774
1.75
1.74
1.76
1.774
1.755
1.73
1.725
1.73
1.711
1.691
1.706
1.73
1.725
1.716
1.716
1.72
1.716
1.681
1.676
1.691
1.696
1.686
1.681
1.696
1.711
1.691
1.667
1.672
1.672
1.657
1.647
1.647
1.667
1.657
1.642
1.657
1.676
1.676
1.662
1.652
1.662
1.657
1.628
1.618
1.628
1.632
1.623
1.618
1.628
1.632
1.613
1.598
1.618
1.637
1.642
1.642
1.657
1.676
1.667
1.647
1.652
1.662
1.652
1.628
1.613
1.628
1.632
1.613
1.618
1.642
1.657
1.657
1.657
1.672
1.691
1.676
1.662
1.676
1.686
1.676
1.662
1.652
1.662
1.657
1.637
1.642
1.657
1.652
1.647
1.652
1.672
1.681
1.662
1.662
1.672
1.676
1.667
1.662
1.662
1.662
1.637
1.623
1.637
1.652
1.652
1.647
1.657
1.676
1.681
1.672
1.686
1.711
1.711
1.706
1.701
1.711
1.711
1.686
1.681
1.696
1.706
1.696
1.691
1.706
1.716
1.696
1.681
1.691
1.701
1.691
1.681
1.681
1.701
1.691
1.667
1.667
1.676
1.672
1.652
1.642
1.652
1.657
1.642
1.647
1.672
1.676
1.662
1.642
1.637
1.637
1.608
1.588
1.608
1.628
1.628
1.623
1.632
1.657
1.657
1.637
1.647
1.667
1.662
1.652
1.642
1.652
1.652
1.628
1.628
1.642
1.652
1.647
1.642
1.662
1.676
1.657
1.637
1.652
1.662
1.652
1.642
1.647
1.662
1.657
1.632
1.642
1.667
1.672
1.667
1.676
1.686
1.691
1.672
1.676
1.706
1.725
1.725
1.73
1.745
1.76
1.74
1.701
1.691
1.667
1.618
1.564
1.53
1.52
1.5
1.476
1.481
1.505
1.52
1.53
1.549
1.584
1.618
1.618
1.637
1.681
1.706
1.706
1.706
1.716
1.73
1.711
1.691
1.706
1.72
1.711
1.701
1.706
1.72
1.711
1.686
1.691
1.711
1.706
1.696
1.681
1.701
1.716
1.696
1.686
1.711
1.725
1.72
1.716
1.72
1.735
1.72
1.706
1.716
1.73
1.725
1.716
1.72
1.735
1.73
1.711
1.72
1.74
1.74
1.74
1.74
1.755
1.764
1.74
1.735
1.75
1.755
1.735
1.725
1.73
1.75
1.745
1.74
1.764
1.789
1.789
1.779
1.779
1.789
1.784
1.75
1.745
1.764
1.764
1.755
1.75
1.764
1.769
1.75
1.755
1.779
1.789
1.789
1.789
1.799
1.813
1.794
1.774
1.789
1.808
1.808
1.799
1.799
1.818
1.818
1.789
1.799
1.818
1.818
1.808
1.799
1.804
1.813
1.789
1.779
1.784
1.779
1.76
1.74
1.745
1.755
1.74
1.72
1.735
1.75
1.745
1.73
1.72
1.725
1.706
1.667
1.662
1.681
1.686
1.676
1.667
1.676
1.681
1.657
1.642
1.647
1.647
1.637
1.632
1.642
1.667
1.657
1.647
1.662
1.681
1.676
1.657
1.652
1.662
1.657
1.632
1.642
1.662
1.662
1.652
1.647
1.657
1.662
1.642
1.637
1.657
1.657
1.642
1.632
1.637
1.652
1.637
1.618
1.637
1.657
1.657
1.647
1.647
1.662
1.652
1.632
1.637
1.652
1.647
1.637
1.632
1.652
1.667
1.642
1.637
1.652
1.657
1.652
1.647
1.652
1.667
1.657
1.652
1.672
1.681
1.672
1.657
1.657
1.672
1.672
1.647
1.657
1.686
1.696
1.691
1.691
1.706
1.716
1.686
1.676
1.691
1.696
1.691
1.686
1.691
1.711
1.701
1.686
1.706
1.72
1.716
1.706
1.696
1.696
1.676
1.637
1.623
1.632
1.637
1.632
1.632
1.657
1.676
1.657
1.647
1.657
1.652
1.632
1.608
1.613
1.628
1.623
1.623
1.652
1.676
1.681
1.667
1.662
1.667
1.662
1.628
1.623
1.637
1.637
1.628
1.623
1.642
1.652
1.628
1.623
1.642
1.652
1.637
1.628
1.628
1.637
1.618
1.603
1.623
1.647
1.642
1.632
1.628
1.637
1.632
1.618
1.632
1.662
1.662
1.647
1.642
1.662
1.681
1.667
1.662
1.686
1.706
1.711
1.716
1.74
1.76
1.735
1.701
1.686
1.676
1.647
1.608
1.574
1.554
1.525
1.481
1.471
1.481
1.481
1.486
1.5
1.54
1.574
1.584
1.603
1.642
1.672
1.676
1.681
1.691
1.701
1.681
1.652
1.652
1.662
1.657
1.647
1.647
1.672
1.686
1.686
1.701
1.725
1.73
1.72
1.711
1.716
1.716
1.686
1.676
1.696
1.711
1.711
1.696
1.701
1.711
1.691
1.672
1.691
1.711
1.706
1.701
1.706
1.725
1.735
1.716
1.725
1.75
1.75
1.74
1.73
1.73
1.73
1.701
1.691
1.701
1.706
1.696
1.696
1.706
1.711
1.696
1.681
1.701
1.72
1.725
1.73
1.74
1.764
1.774
1.764
1.774
1.799
1.799
1.789
1.779
1.789
1.789
1.764
1.755
1.774
1.774
1.764
1.76
1.769
1.789
1.779
1.769
1.779
1.789
1.784
1.774
1.774
1.794
1.799
1.774
1.779
1.799
1.804
1.799
1.789
1.784
1.779
1.75
1.735
1.745
1.755
1.745
1.74
1.75
1.764
1.75
1.725
1.735
1.76
1.75
1.74
1.73
1.735
1.72
1.686
1.686
1.701
1.701
1.691
1.681
1.686
1.701
1.676
1.667
1.672
1.672
1.647
1.628
1.623
1.637
1.632
1.618
1.637
1.657
1.657
1.642
1.647
1.672
1.676
1.652
1.652
1.667
1.662
1.652
1.652
1.657
1.657
1.628
1.618
1.637
1.647
1.642
1.637
1.652
1.681
1.672
1.642
1.652
1.662
1.647
1.632
1.623
1.637
1.637
1.613
1.623
1.652
1.672
1.667
1.662
1.662
1.672
1.647
1.642
1.672
1.686
1.676
1.657
1.662
1.676
1.662
1.642
1.652
1.662
1.662
1.662
1.662
1.676
1.681
1.657
1.662
1.681
1.681
1.672
1.667
1.681
1.691
1.676
1.672
1.686
1.691
1.676
1.667
1.662
1.667
1.652
1.637
1.657
1.681
1.691
1.696
1.696
1.716
1.716
1.691
1.686
1.701
1.696
1.676
1.667
1.672
1.676
1.657
1.657
1.662
1.657
1.637
1.628
1.632
1.647
1.637
1.623
1.637
1.667
1.672
1.662
1.652
1.657
1.652
1.628
1.628
1.647
1.647
1.642
1.637
1.647
1.662
1.637
1.618
1.632
1.647
1.637
1.623
1.623
1.632
1.623
1.608
1.623
1.632
1.628
1.618
1.623
1.647
1.657
1.632
1.632
1.642
1.642
1.628
1.623
1.637
1.652
1.632
1.628
1.652
1.676
1.686
1.691
1.706
1.725
1.72
1.706
1.725
1.745
1.73
1.706
1.686
1.672
1.647
1.593
1.564
1.549
1.52
1.486
1.466
1.461
1.466
1.457
1.466
1.51
1.559
1.584
1.603
1.628
1.662
1.667
1.657
1.676
1.696
1.686
1.686
1.691
1.711
1.711
1.681
1.676
1.691
1.691
1.681
1.672
1.686
1.701
1.686
1.681
1.696
1.701
1.691
1.681
1.686
1.706
1.696
1.672
1.686
1.711
1.716
1.701
1.691
1.696
1.691
1.672
1.681
1.711
1.72
1.72
1.716
1.725
1.74
1.725
1.716
1.735
1.74
1.73
1.72
1.73
1.745
1.735
1.711
1.711
1.725
1.72
1.716
1.716
1.74
1.74
1.716
1.711
1.73
1.74
1.735
1.73
1.74
1.755
1.74
1.74
1.764
1.774
1.764
1.75
1.755
1.774
1.769
1.75
1.769
1.789
1.789
1.784
1.784
1.794
1.799
1.774
1.774
1.794
1.794
1.789
1.784
1.794
1.808
1.794
1.784
1.799
1.808
1.804
1.789
1.779
1.789
1.769
1.745
1.75
1.76
1.75
1.725
1.72
1.73
1.73
1.706
1.706
1.73
1.735
1.725
1.716
1.716
1.716
1.681
1.657
1.657
1.667
1.662
1.657
1.662
1.681
1.672
1.657
1.672
1.686
1.681
1.667
1.667
1.676
1.681
1.652
1.642
1.652
1.647
1.632
1.628
1.642
1.657
1.642
1.632
1.647
1.672
1.667
1.652
1.652
1.667
1.662
1.642
1.652
1.657
1.647
1.628
1.632
1.652
1.657
1.632
1.637
1.662
1.672
1.672
1.662
1.672
1.676
1.647
1.637
1.657
1.676
1.667
1.657
1.662
1.672
1.662
1.637
1.657
1.686
1.696
1.696
1.691
1.701
1.691
1.652
1.642
1.657
1.652
1.637
1.632
1.642
1.662
1.652
1.657
1.676
1.691
1.686
1.676
1.676
1.691
1.681
1.662
1.672
1.686
1.676
1.667
1.667
1.691
1.706
1.691
1.701
1.716
1.716
1.706
1.696
1.701
1.711
1.691
1.676
1.691
1.711
1.706
1.696
1.691
1.706
1.691
1.667
1.672
1.686
1.691
1.681
1.676
1.686
1.681
1.652
1.647
1.662
1.662
1.657
1.657
1.672
1.681
1.657
1.637
1.647
1.652
1.642
1.628
1.623
1.637
1.642
1.632
1.652
1.672
1.672
1.662
1.662
1.672
1.672
1.642
1.637
1.652
1.657
1.652
1.647
1.667
1.681
1.667
1.652
1.667
1.676
1.662
1.647
1.642
1.657
1.657
1.637
1.652
1.672
1.676
1.672
1.667
1.686
1.696
1.681
1.681
1.706
1.72
1.72
1.716
1.725
1.74
1.711
1.676
1.672
1.662
1.632
1.593
1.564
1.549
1.515
1.481
1.486
1.5
1.505
1.5
1.515
1.549
1.579
1.588
1.613
1.652
1.672
1.676
1.676
1.691
1.701
1.676
1.657
1.672
1.691
1.686
1.681
1.681
1.701
1.696
1.672
1.686
1.701
1.701
1.686
1.686
1.716
1.735
1.706
1.696
1.701
1.701
1.696
1.686
1.691
1.706
1.691
1.681
1.706
1.725
1.725
1.725
1.735
1.74
1.72
1.691
1.696
1.716
1.716
1.706
1.701
1.716
1.72
1.706
1.716
1.735
1.74
1.725
1.72
1.735
1.755
1.745
1.735
1.75
1.755
1.745
1.74
1.745
1.755
1.745
1.725
1.74
1.769
1.764
1.76
1.76
1.779
1.789
1.764
1.764
1.789
1.794
1.779
1.76
1.764
1.769
1.755
1.745
1.774
1.799
1.804
1.799
1.799
1.808
1.799
1.769
1.774
1.784
1.779
1.769
1.769
1.784
1.794
1.774
1.774
1.789
1.784
1.769
1.755
1.76
1.764
1.745
1.73
1.74
1.75
1.745
1.73
1.73
1.74
1.72
1.691
1.691
1.696
1.691
1.681
1.681
1.696
1.701
1.672
1.657
1.672
1.676
1.662
1.647
1.642
1.652
1.637
1.632
1.652
1.662
1.652
1.642
1.642
1.662
1.662
1.637
1.652
1.676
1.686
1.676
1.667
1.676
1.676
1.647
1.642
1.662
1.672
1.662
1.652
1.672
1.686
1.672
1.657
1.672
1.681
1.672
1.657
1.657
1.667
1.662
1.642
1.652
1.676
1.676
1.667
1.657
1.667
1.672
1.647
1.637
1.652
1.657
1.657
1.652
1.662
1.676
1.657
1.637
1.642
1.652
1.652
1.647
1.647
1.662
1.657
1.632
1.642
1.662
1.667
1.662
1.662
1.676
1.686
1.672
1.672
1.691
1.691
1.676
1.662
1.667
1.672
1.657
1.647
1.667
1.681
1.672
1.662
1.662
1.667
1.652
1.618
1.628
1.642
1.637
1.632
1.632
1.657
1.676
1.667
1.662
1.676
1.681
1.676
1.667
1.667
1.676
1.662
1.647
1.662
1.672
1.662
1.647
1.652
1.676
1.676
1.657
1.667
1.686
1.691
1.681
1.676
1.691
1.696
1.676
1.676
1.696
1.701
1.686
1.681
1.691
1.706
1.686
1.662
1.662
1.662
1.642
1.623
1.618
1.628
1.618
1.598
1.608
1.642
1.657
1.662
1.652
1.657
1.652
1.628
1.618
1.632
1.642
1.628
1.618
1.623
1.637
1.623
1.608
1.623
1.642
1.637
1.623
1.618
1.632
1.632
1.613
1.618
1.637
1.637
1.628
1.623
1.642
1.647
1.613
1.588
1.593
1.598
1.588
1.579
1.588
1.608
1.598
1.584
1.608
1.637
1.642
1.642
1.642
1.662
1.662
1.642
1.662
1.686
1.696
1.691
1.696
1.72
1.735
1.716
1.706
1.701
1.686
1.642
1.603
1.574
1.554
1.515
1.481
1.481
1.491
1.481
1.471
1.476
1.5
1.52
1.52
1.549
1.588
1.608
1.618
1.628
1.647
1.657
1.642
1.642
1.672
1.676
1.667
1.657
1.672
1.691
1.686
1.672
1.691
1.706
1.711
1.706
1.711
1.725
1.725
1.701
1.706
1.72
1.72
1.711
1.701
1.711
1.716
1.686
1.672
1.691
1.706
1.696
1.691
1.701
1.72
1.711
1.681
1.691
1.706
1.701
1.706
1.716
1.74
1.74
1.711
1.711
1.716
1.711
1.696
1.691
1.711
1.725
1.716
1.725
1.75
1.769
1.764
1.755
1.764
1.779
1.764
1.75
1.769
1.789
1.779
1.76
1.75
1.76
1.76
1.745
1.76
1.784
1.789
1.779
1.769
1.784
1.789
1.764
1.75
1.769
1.784
1.784
1.779
1.789
1.804
1.784
1.76
1.774
1.784
1.779
1.769
1.774
1.789
1.784
1.764
1.774
1.789
1.784
1.764
1.755
1.755
1.755
1.73
1.73
1.755
1.76
1.755
1.745
1.745
1.75
1.725
1.701
1.701
1.711
1.696
1.681
1.686
1.701
1.701
1.681
1.686
1.691
1.681
1.667
1.657
1.667
1.667
1.642
1.632
1.642
1.642
1.628
1.618
1.623
1.642
1.632
1.623
1.647
1.676
1.676
1.672
1.667
1.672
1.657
1.628
1.632
1.647
1.647
1.637
1.637
1.652
1.662
1.637
1.628
1.647
1.662
1.662
1.647
1.652
1.667
1.652
1.637
1.637
1.647
1.637
1.632
1.632
1.652
1.657
1.642
1.657
1.681
1.686
1.676
1.672
1.681
1.681
1.652
1.652
1.676
1.691
1.681
1.672
1.676
1.691
1.676
1.662
1.672
1.686
1.681
1.676
1.676
1.691
1.681
1.652
1.657
1.676
1.686
1.681
1.672
1.681
1.681
1.657
1.652
1.667
1.672
1.657
1.652
1.667
1.686
1.681
1.667
1.681
1.696
1.686
1.672
1.667
1.681
1.676
1.657
1.667
1.686
1.686
1.676
1.667
1.681
1.691
1.667
1.662
1.676
1.686
1.686
1.681
1.691
1.711
1.696
1.667
1.672
1.681
1.672
1.652
1.642
1.657
1.662
1.652
1.667
1.691
1.701
1.696
1.696
1.716
1.72
1.696
1.686
1.706
1.72
1.72
1.716
1.725
1.745
1.73
1.711
1.716
1.725
1.711
1.686
1.676
1.681
1.672
1.642
1.637
1.657
1.657
1.652
1.652
1.667
1.676
1.657
1.652
1.667
1.676
1.667
1.657
1.652
1.657
1.647
1.632
1.642
1.662
1.662
1.652
1.657
1.672
1.672
1.642
1.642
1.662
1.662
1.657
1.652
1.672
1.686
1.662
1.652
1.672
1.676
1.672
1.662
1.667
1.681
1.667
1.652
1.672
1.691
1.681
1.672
1.667
1.686
1.676
1.652
1.662
1.686
1.686
1.676
1.676
1.701
1.73
1.73
1.74
1.769
1.794
1.799
1.789
1.779
1.769
1.72
1.662
1.632
1.613
1.574
1.535
1.51
1.505
1.5
1.471
1.481
1.505
1.515
1.52
1.535
1.569
1.608
1.608
1.623
1.652
1.672
1.672
1.672
1.691
1.706
1.696
1.676
1.686
1.701
1.701
1.696
1.696
1.711
1.72
1.706
1.716
1.73
1.72
1.696
1.676
1.686
1.691
1.676
1.681
1.72
1.75
1.76
1.755
1.755
1.76
1.73
1.701
1.711
1.725
1.73
1.73
1.74
1.76
1.76
1.735
1.735
1.755
1.755
1.75
1.745
1.76
1.769
1.745
1.73
1.74
1.755
1.75
1.745
1.75
1.774
1.779
1.774
1.789
1.799
1.789
1.774
1.774
1.789
1.784
1.76
1.76
1.774
1.784
1.774
1.769
1.779
1.789
1.774
1.769
1.794
1.808
1.804
1.794
1.794
1.808
1.804
1.789
1.808
1.833
1.838
1.828
1.828
1.838
1.823
1.789
1.789
1.804
1.808
1.794
1.789
1.804
1.808
1.789
1.779
1.799
1.804
1.794
1.784
1.789
1.804
1.784
1.755
1.755
1.76
1.75
1.73
1.725
1.735
1.735
1.706
1.706
1.716
1.706
1.686
1.676
1.686
1.701
1.681
1.672
1.696
1.706
1.696
1.681
1.676
1.681
1.662
1.642
1.657
1.672
1.672
1.662
1.662
1.676
1.681
1.662
1.657
1.667
1.667
1.662
1.652
1.667
1.681
1.662
1.652
1.676
1.696
1.686
1.667
1.652
1.652
1.632
1.608
1.618
1.642
1.647
1.647
1.662
1.686
1.696
1.667
1.662
1.672
1.672
1.667
1.662
1.672
1.681
1.667
1.657
1.672
1.686
1.672
1.662
1.667
1.681
1.672
1.657
1.676
1.696
1.696
1.691
1.691
1.706
1.711
1.686
1.686
1.706
1.706
1.686
1.672
1.676
1.686
1.662
1.657
1.672
1.676
1.662
1.647
1.652
1.667
1.657
1.637
1.647
1.667
1.672
1.667
1.667
1.686
1.696
1.672
1.676
1.696
1.701
1.696
1.691
1.701
1.706
1.672
1.652
1.657
1.662
1.652
1.642
1.652
1.676
1.672
1.657
1.676
1.701
1.706
1.701
1.701
1.711
1.711
1.672
1.657
1.667
1.672
1.667
1.662
1.686
1.711
1.701
1.701
1.72
1.735
1.725
1.711
1.716
1.73
1.72
1.696
1.701
1.716
1.711
1.691
1.676
1.676
1.667
1.637
1.632
1.652
1.657
1.652
1.642
1.652
1.667
1.652
1.647
1.667
1.676
1.667
1.652
1.657
1.672
1.662
1.642
1.652
1.667
1.662
1.652
1.647
1.657
1.657
1.623
1.623
1.642
1.647
1.632
1.623
1.637
1.662
1.647
1.642
1.657
1.667
1.657
1.642
1.637
1.642
1.632
1.613
1.618
1.637
1.642
1.642
1.647
1.672
1.681
1.662
1.657
1.672
1.672
1.657
1.652
1.662
1.681
1.676
1.686
1.72
1.75
1.755
1.745
1.745
1.745
1.716
1.667
1.647
1.632
1.598
1.559
1.535
1.535
1.525
1.486
1.471
1.481
1.486
1.486
1.496
1.53
1.559
1.569
1.588
1.632
1.672
1.686
1.691
1.701
1.716
1.711
1.686
1.691
1.701
1.701
1.686
1.681
1.696
1.701
1.681
1.691
1.716
1.725
1.716
1.706
1.706
1.711
1.691
1.681
1.696
1.706
1.696
1.686
1.696
1.716
1.716
1.696
1.711
1.725
1.72
1.701
1.691
1.696
1.691
1.667
1.676
1.706
1.72
1.725
1.73
1.755
1.774
1.75
1.73
1.74
1.75
1.74
1.735
1.735
1.755
1.745
1.725
1.735
1.755
1.75
1.74
1.73
1.745
1.75
1.735
1.74
1.76
1.769
1.76
1.76
1.779
1.789
1.764
1.74
1.755
1.774
1.769
1.76
1.764
1.784
1.784
1.769
1.779
1.799
1.804
1.794
1.789
1.794
1.789
1.755
1.75
1.769
1.779
1.774
1.769
1.784
1.804
1.789
1.779
1.789
1.794
1.784
1.769
1.76
1.76
1.745
1.72
1.725
1.74
1.73
1.711
1.701
1.711
1.716
1.681
1.676
1.691
1.691
1.672
1.657
1.662
1.672
1.652
1.632
1.637
1.652
1.647
1.637
1.647
1.667
1.662
1.637
1.642
1.657
1.647
1.632
1.628
1.642
1.657
1.642
1.647
1.672
1.681
1.667
1.657
1.657
1.657
1.632
1.613
1.632
1.647
1.642
1.637
1.642
1.662
1.652
1.623
1.623
1.642
1.642
1.637
1.637
1.647
1.657
1.637
1.637
1.652
1.657
1.647
1.637
1.632
1.637
1.618
1.613
1.632
1.647
1.642
1.637
1.647
1.672
1.672
1.652
1.662
1.681
1.686
1.672
1.662
1.676
1.676
1.642
1.637
1.647
1.647
1.637
1.637
1.652
1.667
1.652
1.628
1.628
1.632
1.623
1.608
1.613
1.628
1.632
1.623
1.647
1.676
1.676
1.662
1.657
1.667
1.662
1.623
1.608
1.618
1.623
1.618
1.618
1.632
1.657
1.642
1.637
1.662
1.691
1.686
1.676
1.672
1.681
1.672
1.652
1.657
1.676
1.672
1.667
1.662
1.672
1.672
1.647
1.647
1.667
1.667
1.652
1.642
1.652
1.667
1.657
1.647
1.672
1.686
1.686
1.676
1.681
1.701
1.696
1.676
1.681
1.701
1.696
1.672
1.652
1.642
1.637
1.608
1.608
1.628
1.642
1.647
1.647
1.657
1.672
1.657
1.642
1.657
1.662
1.647
1.637
1.632
1.642
1.632
1.608
1.613
1.632
1.642
1.637
1.642
1.652
1.662
1.632
1.618
1.632
1.637
1.623
1.613
1.623
1.642
1.623
1.603
1.613
1.632
1.637
1.637
1.642
1.652
1.647
1.618
1.618
1.632
1.623
1.608
1.608
1.628
1.647
1.642
1.642
1.662
1.657
1.642
1.628
1.642
1.662
1.657
1.662
1.696
1.735
1.745
1.745
1.745
1.755
1.735
1.696
1.681
1.676
1.657
1.618
1.588
1.569
1.544
1.486
1.461
1.461
1.466
1.461
1.471
1.5
1.544
1.564
1.584
1.628
1.662
1.667
1.657
1.657
1.667
1.657
1.632
1.647
1.676
1.691
1.691
1.701
1.72
1.725
1.696
1.686
1.701
1.706
1.696
1.686
1.706
1.74
1.735
1.725
1.74
1.745
1.735
1.711
1.706
1.716
1.711
1.691
1.706
1.73
1.735
1.73
1.725
1.735
1.735
1.716
1.711
1.73
1.745
1.74
1.735
1.74
1.745
1.72
1.696
1.706
1.716
1.706
1.701
1.706
1.73
1.735
1.72
1.73
1.755
1.764
1.755
1.755
1.774
1.789
1.769
1.769
1.789
1.804
1.794
1.789
1.804
1.823
1.804
1.774
1.779
1.789
1.779
1.774
1.774
1.789
1.784
1.764
1.779
1.804
1.818
1.818
1.813
1.818
1.818
1.794
1.784
1.804
1.804
1.784
1.764
1.764
1.779
1.764
1.755
1.774
1.789
1.789
1.784
1.784
1.799
1.799
1.769
1.76
1.764
1.75
1.74
1.735
1.745
1.75
1.72
1.711
1.72
1.72
1.701
1.681
1.681
1.696
1.676
1.657
1.676
1.691
1.686
1.681
1.676
1.686
1.676
1.652
1.657
1.676
1.672
1.657
1.647
1.657
1.667
1.642
1.637
1.657
1.667
1.657
1.647
1.652
1.662
1.647
1.628
1.637
1.657
1.657
1.652
1.662
1.681
1.681
1.662
1.667
1.686
1.681
1.662
1.647
1.647
1.647
1.623
1.613
1.632
1.642
1.637
1.632
1.647
1.667
1.657
1.642
1.657
1.672
1.672
1.667
1.667
1.681
1.681
1.657
1.662
1.681
1.681
1.672
1.672
1.681
1.686
1.657
1.647
1.667
1.672
1.662
1.662
1.672
1.701
1.696
1.676
1.676
1.681
1.667
1.657
1.652
1.667
1.667
1.647
1.657
1.676
1.667
1.647
1.637
1.642
1.652
1.632
1.637
1.662
1.681
1.676
1.662
1.667
1.672
1.652
1.632
1.647
1.672
1.676
1.667
1.667
1.681
1.676
1.647
1.652
1.667
1.667
1.662
1.662
1.681
1.696
1.672
1.662
1.681
1.681
1.662
1.647
1.647
1.657
1.642
1.632
1.652
1.672
1.672
1.662
1.662
1.681
1.691
1.681
1.686
1.706
1.706
1.701
1.701
1.706
1.706
1.676
1.662
1.681
1.691
1.681
1.667
1.667
1.672
1.652
1.628
1.632
1.647
1.647
1.642
1.652
1.672
1.667
1.637
1.632
1.642
1.642
1.632
1.632
1.642
1.647
1.618
1.608
1.623
1.618
1.603
1.593
1.598
1.618
1.608
1.598
1.618
1.642
1.642
1.637
1.632
1.652
1.652
1.628
1.628
1.642
1.632
1.613
1.603
1.618
1.628
1.608
1.613
1.642
1.667
1.667
1.662
1.662
1.672
1.652
1.632
1.637
1.642
1.637
1.632
1.632
1.657
1.667
1.662
1.681
1.716
1.735
1.74
1.74
1.75
1.745
1.701
1.662
1.647
1.618
1.574
1.53
1.505
1.491
1.461
1.437
1.447
1.466
1.476
1.481
1.496
1.53
1.554
1.554
1.584
1.623
1.647
1.652
1.657
1.676
1.686
1.667
1.662
1.681
1.691
1.691
1.686
1.701
1.72
1.711
1.686
1.696
1.706
1.691
1.681
1.681
1.701
1.701
1.681
1.691
1.716
1.72
1.711
1.696
1.701
1.701
1.676
1.672
1.696
1.706
1.701
1.696
1.706
1.72
1.701
1.676
1.681
1.701
1.706
1.706
1.711
1.74
1.75
1.73
1.735
1.75
1.745
1.73
1.72
1.735
1.75
1.735
1.73
1.75
1.764
1.76
1.745
1.75
1.755
1.745
1.73
1.74
1.76
1.755
1.74
1.75
1.769
1.779
1.755
1.76
1.779
1.784
1.779
1.784
1.804
1.808
1.769
1.75
1.755
1.76
1.75
1.745
1.755
1.774
1.774
1.769
1.794
1.813
1.804
1.794
1.779
1.784
1.784
1.76
1.769
1.794
1.799
1.784
1.769
1.774
1.779
1.75
1.735
1.745
1.755
1.74
1.72
1.716
1.72
1.701
1.676
1.686
1.711
1.716
1.711
1.711
1.725
1.72
1.691
1.681
1.696
1.691
1.672
1.652
1.652
1.642
1.613
1.598
1.618
1.632
1.637
1.637
1.657
1.686
1.672
1.647
1.647
1.662
1.647
1.632
1.628
1.642
1.647
1.632
1.642
1.667
1.667
1.657
1.652
1.667
1.686
1.667
1.657
1.667
1.676
1.662
1.652
1.652
1.667
1.657
1.642
1.657
1.681
1.676
1.667
1.657
1.667
1.657
1.618
1.608
1.628
1.632
1.628
1.628
1.652
1.681
1.672
1.672
1.686
1.686
1.672
1.657
1.662
1.672
1.662
1.647
1.667
1.691
1.696
1.686
1.681
1.686
1.681
1.657
1.657
1.676
1.676
1.662
1.657
1.667
1.676
1.657
1.647
1.662
1.667
1.652
1.642
1.647
1.667
1.657
1.637
1.652
1.667
1.667
1.657
1.657
1.667
1.667
1.642
1.642
1.662
1.667
1.662
1.662
1.676
1.691
1.672
1.657
1.667
1.676
1.667
1.657
1.657
1.672
1.662
1.657
1.672
1.691
1.691
1.686
1.686
1.706
1.701
1.672
1.667
1.686
1.691
1.686
1.686
1.701
1.716
1.701
1.691
1.711
1.73
1.72
1.706
1.706
1.716
1.696
1.676
1.686
1.701
1.681
1.657
1.642
1.652
1.652
1.623
1.618
1.628
1.628
1.628
1.628
1.642
1.652
1.632
1.623
1.647
1.657
1.647
1.637
1.642
1.662
1.657
1.642
1.652
1.667
1.662
1.647
1.647
1.662
1.667
1.632
1.623
1.632
1.642
1.637
1.637
1.652
1.662
1.642
1.637
1.652
1.667
1.657
1.642
1.637
1.647
1.637
1.628
1.652
1.676
1.676
1.667
1.657
1.667
1.662
1.632
1.632
1.652
1.662
1.662
1.667
1.696
1.72
1.716
1.716
1.74
1.755
1.745
1.72
1.696
1.676
1.637
1.579
1.549
1.535
1.51
1.481
1.471
1.486
1.496
1.486
1.505
1.54
1.564
1.584
1.603
1.637
1.662
1.647
1.642
1.667
1.686
1.681
1.672
1.676
1.701
1.706
1.696
1.706
1.72
1.706
1.691
1.676
1.686
1.686
1.667
1.672
1.701
1.716
1.72
1.72
1.73
1.735
1.711
1.691
1.706
1.72
1.711
1.696
1.696
1.716
1.716
1.701
1.711
1.73
1.73
1.725
1.725
1.74
1.74
1.711
1.716
1.73
1.735
1.725
1.725
1.74
1.755
1.74
1.73
1.75
1.76
1.75
1.74
1.74
1.755
1.745
1.725
1.74
1.755
1.75
1.73
1.725
1.74
1.745
1.73
1.735
1.76
1.774
1.769
1.764
1.774
1.784
1.76
1.75
1.774
1.794
1.794
1.789
1.799
1.808
1.794
1.764
1.774
1.794
1.789
1.789
1.794
1.808
1.818
1.789
1.784
1.794
1.794
1.784
1.774
1.779
1.789
1.764
1.75
1.764
1.769
1.76
1.74
1.735
1.745
1.735
1.716
1.73
1.74
1.735
1.72
1.711
1.716
1.706
1.667
1.647
1.662
1.667
1.667
1.662
1.676
1.696
1.676
1.662
1.672
1.676
1.667
1.657
1.657
1.672
1.662
1.642
1.657
1.676
1.676
1.662
1.657
1.667
1.676
1.657
1.657
1.676
1.676
1.667
1.652
1.657
1.667
1.647
1.632
1.642
1.657
1.652
1.642
1.647
1.667
1.667
1.652
1.662
1.676
1.672
1.657
1.652
1.672
1.686
1.657
1.647
1.652
1.662
1.662
1.657
1.667
1.681
1.667
1.657
1.681
1.696
1.691
1.681
1.672
1.681
1.667
1.642
1.657
1.686
1.691
1.686
1.681
1.696
1.706
1.681
1.681
1.701
1.696
1.681
1.667
1.672
1.686
1.667
1.652
1.672
1.686
1.681
1.676
1.681
1.691
1.676
1.647
1.652
1.672
1.672
1.662
1.657
1.672
1.681
1.657
1.657
1.681
1.691
1.686
1.676
1.686
1.701
1.676
1.652
1.662
1.672
1.667
1.662
1.667
1.681
1.681
1.657
1.662
1.681
1.676
1.672
1.672
1.686
1.691
1.676
1.676
1.696
1.701
1.686
1.672
1.681
1.696
1.686
1.681
1.711
1.725
1.73
1.725
1.73
1.74
1.73
1.701
1.696
1.706
1.696
1.691
1.701
1.73
1.745
1.711
1.696
1.701
1.696
1.672
1.652
1.647
1.662
1.637
1.628
1.647
1.667
1.662
1.652
1.647
1.662
1.662
1.652
1.672
1.691
1.686
1.672
1.662
1.667
1.662
1.632
1.632
1.657
1.676
1.681
1.681
1.691
1.701
1.676
1.657
1.662
1.662
1.647
1.632
1.642
1.662
1.662
1.647
1.667
1.691
1.696
1.681
1.662
1.662
1.652
1.623
1.618
1.632
1.647
1.647
1.652
1.672
1.691
1.681
1.667
1.681
1.701
1.706
1.711
1.725
1.75
1.76
1.74
1.75
1.75
1.725
1.686
1.642
1.623
1.593
1.54
1.51
1.51
1.51
1.491
1.481
1.496
1.53
1.535
1.54
1.574
1.613
1.632
1.652
1.672
1.696
1.696
1.672
1.681
1.706
1.706
1.701
1.696
1.711
1.711
1.686
1.681
1.701
1.711
1.706
1.706
1.72
1.74
1.725
1.711
1.725
1.735
1.72
1.711
1.711
1.73
1.73
1.716
1.73
1.75
1.745
1.73
1.716
1.72
1.72
1.701
1.696
1.72
1.73
1.72
1.716
1.72
1.735
1.716
1.701
1.72
1.745
1.745
1.745
1.755
1.774
1.774
1.755
1.764
1.779
1.779
1.769
1.764
1.774
1.774
1.745
1.735
1.755
1.764
1.755
1.75
1.764
1.784
1.779
1.769
1.784
1.808
1.808
1.804
1.804
1.813
1.804
1.779
1.789
1.808
1.813
1.804
1.799
1.808
1.813
1.789
1.774
1.779
1.779
1.774
1.769
1.784
1.799
1.794
1.779
1.789
1.804
1.799
1.789
1.784
1.799
1.789
1.764
1.764
1.774
1.769
1.755
1.745
1.745
1.745
1.716
1.711
1.725
1.73
1.716
1.701
1.701
1.716
1.696
1.681
1.696
1.706
1.696
1.676
1.672
1.681
1.676
1.647
1.652
1.667
1.662
1.652
1.647
1.657
1.667
1.642
1.637
1.642
1.642
1.628
1.613
1.618
1.632
1.618
1.608
1.628
1.657
1.662
1.662
1.662
1.676
1.667
1.642
1.647
1.672
1.676
1.676
1.672
1.681
1.691
1.667
1.652
1.662
1.667
1.662
1.652
1.652
1.662
1.652
1.637
1.647
1.662
1.657
1.647
1.642
1.662
1.667
1.647
1.657
1.681
1.686
1.676
1.667
1.676
1.676
1.647
1.632
1.642
1.647
1.642
1.632
1.647
1.667
1.662
1.657
1.672
1.691
1.686
1.681
1.681
1.691
1.676
1.642
1.642
1.662
1.672
1.667
1.667
1.681
1.691
1.672
1.662
1.676
1.672
1.657
1.647
1.652
1.672
1.662
1.642
1.652
1.667
1.667
1.657
1.662
1.681
1.691
1.681
1.691
1.706
1.696
1.672
1.657
1.667
1.676
1.662
1.662
1.691
1.711
1.706
1.701
1.701
1.711
1.691
1.667
1.667
1.681
1.676
1.672
1.667
1.681
1.676
1.642
1.642
1.652
1.657
1.647
1.642
1.657
1.662
1.637
1.632
1.657
1.667
1.662
1.652
1.652
1.662
1.647
1.632
1.637
1.647
1.632
1.618
1.613
1.632
1.632
1.613
1.623
1.642
1.652
1.647
1.647
1.657
1.662
1.637
1.623
1.637
1.642
1.628
1.618
1.628
1.647
1.637
1.618
1.628
1.637
1.628
1.618
1.623
1.632
1.623
1.598
1.608
1.637
1.647
1.647
1.647
1.667
1.691
1.681
1.686
1.711
1.725
1.72
1.706
1.701
1.701
1.676
1.642
1.632
1.623
1.593
1.554
1.53
1.52
1.5
1.461
1.461
1.481
1.491
1.5
1.515
1.549
1.579
1.579
1.588
1.628
1.657
1.667
1.662
1.676
1.691
1.681
1.667
1.676
1.691
1.676
1.662
1.657
1.667
1.667
1.647
1.657
1.691
1.701
1.701
1.706
1.72
1.73
1.711
1.696
1.716
1.72
1.711
1.701
1.701
1.711
1.701
1.681
1.701
1.72
1.706
1.696
1.701
1.716
1.716
1.676
1.676
1.701
1.711
1.716
1.72
1.735
1.745
1.725
1.716
1.73
1.735
1.725
1.72
1.73
1.75
1.745
1.73
1.745
1.76
1.76
1.745
1.74
1.745
1.745
1.725
1.73
1.755
1.76
1.75
1.735
1.75
1.76
1.74
1.735
1.755
1.769
1.769
1.764
1.774
1.794
1.784
1.764
1.774
1.789
1.779
1.774
1.774
1.789
1.784
1.76
1.76
1.779
1.779
1.769
1.76
1.769
1.779
1.755
1.745
1.75
1.75
1.735
1.725
1.725
1.74
1.73
1.711
1.725
1.74
1.735
1.725
1.716
1.72
1.711
1.681
1.681
1.701
1.706
1.701
1.681
1.672
1.662
1.628
1.613
1.618
1.623
1.618
1.618
1.637
1.657
1.652
1.642
1.657
1.672
1.662
1.652
1.647
1.657
1.657
1.632
1.632
1.647
1.647
1.637
1.628
1.632
1.642
1.623
1.613
1.628
1.628
1.613
1.603
1.613
1.632
1.628
1.613
1.632
1.657
1.657
1.652
1.652
1.662
1.662
1.628
1.628
1.642
1.647
1.637
1.632
1.642
1.652
1.628
1.613
1.623
1.628
1.623
1.618
1.628
1.652
1.652
1.637
1.657
1.676
1.672
1.662
1.647
1.652
1.652
1.628
1.637
1.657
1.662
1.657
1.657
1.672
1.686
1.667
1.657
1.672
1.686
1.676
1.657
1.657
1.667
1.642
1.618
1.623
1.642
1.642
1.637
1.642
1.662
1.672
1.657
1.657
1.681
1.681
1.672
1.667
1.676
1.686
1.672
1.657
1.672
1.686
1.676
1.662
1.667
1.676
1.667
1.652
1.672
1.691
1.686
1.672
1.672
1.691
1.696
1.672
1.672
1.686
1.686
1.672
1.652
1.647
1.647
1.623
1.613
1.623
1.637
1.632
1.618
1.618
1.637
1.632
1.613
1.623
1.637
1.637
1.632
1.637
1.657
1.662
1.632
1.623
1.637
1.642
1.632
1.628
1.632
1.637
1.613
1.598
1.618
1.637
1.637
1.637
1.652
1.667
1.657
1.623
1.623
1.632
1.628
1.618
1.613
1.628
1.637
1.628
1.637
1.662
1.667
1.652
1.637
1.647
1.662
1.652
1.647
1.672
1.696
1.706
1.711
1.72
1.74
1.735
1.72
1.725
1.735
1.716
1.686
1.662
1.647
1.613
1.559
1.53
1.52
1.5
1.476
1.457
1.466
1.481
1.476
1.486
1.53
1.569
1.588
1.603
1.618
1.642
1.647
1.632
1.647
1.667
1.672
1.672
1.676
1.696
1.701
1.672
1.667
1.686
1.686
1.676
1.672
1.686
1.706
1.691
1.681
1.696
1.701
1.691
1.672
1.672
1.681
1.672
1.647
1.662
1.691
1.701
1.696
1.701
1.725
1.735
1.711
1.701
1.711
1.711
1.701
1.691
1.696
1.706
1.691
1.686
1.706
1.725
1.72
1.716
1.716
1.73
1.72
1.696
1.706
1.725
1.725
1.72
1.725
1.745
1.755
1.725
1.72
1.73
1.735
1.73
1.73
1.745
1.764
1.745
1.735
1.755
1.779
1.774
1.76
1.755
1.769
1.764
1.75
1.764
1.789
1.799
1.794
1.799
1.813
1.818
1.794
1.789
1.804
1.808
1.789
1.774
1.779
1.799
1.784
1.774
1.789
1.794
1.784
1.764
1.76
1.769
1.755
1.73
1.74
1.76
1.76
1.75
1.745
1.76
1.76
1.72
1.711
1.725
1.73
1.716
1.701
1.706
1.72
1.706
1.691
1.701
1.701
1.686
1.672
1.667
1.676
1.672
1.647
1.657
1.681
1.691
1.681
1.667
1.662
1.657
1.628
1.623
1.637
1.647
1.642
1.642
1.662
1.681
1.662
1.637
1.642
1.652
1.642
1.632
1.642
1.662
1.657
1.632
1.642
1.662
1.662
1.657
1.652
1.667
1.676
1.657
1.657
1.676
1.676
1.662
1.642
1.647
1.657
1.642
1.632
1.657
1.681
1.686
1.676
1.672
1.672
1.657
1.632
1.637
1.652
1.652
1.652
1.657
1.672
1.686
1.657
1.652
1.667
1.662
1.652
1.647
1.657
1.676
1.662
1.652
1.672
1.691
1.686
1.676
1.672
1.681
1.667
1.642
1.647
1.667
1.672
1.662
1.667
1.681
1.691
1.662
1.647
1.657
1.662
1.652
1.642
1.657
1.672
1.667
1.667
1.691
1.711
1.701
1.686
1.691
1.706
1.696
1.662
1.662
1.676
1.676
1.676
1.676
1.696
1.716
1.701
1.706
1.725
1.725
1.706
1.681
1.676
1.681
1.662
1.647
1.667
1.686
1.686
1.676
1.676
1.686
1.672
1.642
1.642
1.652
1.647
1.632
1.628
1.642
1.652
1.628
1.623
1.647
1.657
1.652
1.647
1.657
1.672
1.657
1.637
1.647
1.657
1.657
1.652
1.647
1.657
1.647
1.623
1.628
1.652
1.652
1.647
1.647
1.667
1.686
1.672
1.667
1.676
1.676
1.662
1.652
1.657
1.672
1.667
1.652
1.667
1.691
1.696
1.696
1.701
1.72
1.725
1.706
1.72
1.74
1.74
1.72
1.691
1.681
1.662
1.613
1.584
1.579
1.564
1.535
1.51
1.5
1.5
1.481
1.466
1.496
1.535
1.559
1.584
1.618
1.662
1.681
1.676
1.696
1.716
1.72
1.711
1.706
1.72
1.74
1.72
1.711
1.725
1.725
1.711
1.696
1.696
1.706
1.701
1.691
1.72
1.745
1.745
1.735
1.73
1.74
1.735
1.706
1.716
1.735
1.745
1.745
1.74
1.745
1.755
1.73
1.725
1.735
1.74
1.73
1.725
1.73
1.74
1.725
1.716
1.73
1.75
1.75
1.745
1.75
1.769
1.774
1.75
1.75
1.764
1.764
1.755
1.755
1.764
1.764
1.74
1.735
1.755
1.764
1.764
1.76
1.769
1.784
1.774
1.764
1.784
1.804
1.804
1.789
1.789
1.804
1.808
1.794
1.804
1.818
1.818
1.804
1.794
1.789
1.789
1.764
1.76
1.779
1.784
1.784
1.789
1.804
1.828
1.818
1.804
1.818
1.828
1.813
1.794
1.784
1.789
1.779
1.75
1.75
1.764
1.769
1.76
1.75
1.76
1.764
1.74
1.735
1.745
1.745
1.735
1.73
1.735
1.745
1.72
1.696
1.701
1.716
1.711
1.696
1.691
1.701
1.691
1.667
1.667
1.686
1.686
1.686
1.681
1.696
1.696
1.667
1.637
1.642
1.642
1.632
1.628
1.642
1.662
1.662
1.647
1.662
1.672
1.667
1.657
1.652
1.662
1.657
1.637
1.647
1.667
1.667
1.652
1.647
1.657
1.672
1.652
1.647
1.667
1.686
1.681
1.667
1.667
1.681
1.667
1.647
1.657
1.676
1.676
1.667
1.662
1.676
1.676
1.652
1.652
1.667
1.662
1.652
1.647
1.662
1.676
1.662
1.662
1.681
1.691
1.686
1.676
1.676
1.686
1.667
1.642
1.647
1.667
1.667
1.667
1.672
1.696
1.701
1.676
1.681
1.701
1.696
1.676
1.657
1.657
1.662
1.642
1.642
1.667
1.691
1.696
1.696
1.701
1.716
1.701
1.681
1.691
1.701
1.696
1.686
1.686
1.706
1.711
1.696
1.706
1.72
1.725
1.711
1.696
1.701
1.706
1.676
1.657
1.667
1.672
1.667
1.662
1.672
1.691
1.681
1.667
1.676
1.686
1.672
1.652
1.642
1.652
1.657
1.637
1.637
1.657
1.662
1.662
1.657
1.667
1.672
1.642
1.632
1.652
1.662
1.647
1.632
1.628
1.637
1.628
1.613
1.632
1.657
1.657
1.647
1.652
1.672
1.672
1.642
1.637
1.652
1.657
1.652
1.647
1.662
1.681
1.672
1.662
1.676
1.691
1.691
1.696
1.711
1.725
1.711
1.696
1.716
1.735
1.73
1.72
1.706
1.706
1.686
1.628
1.593
1.574
1.549
1.51
1.476
1.471
1.481
1.466
1.471
1.505
1.535
1.554
1.574
1.598
1.623
1.623
1.623
1.652
1.686
1.691
1.691
1.696
1.716
1.725
1.711
1.716
1.73
1.725
1.72
1.716
1.725
1.73
1.701
1.676
1.676
1.676
1.662
1.652
1.657
1.686
1.691
1.691
1.716
1.735
1.73
1.716
1.706
1.711
1.706
1.676
1.681
1.706
1.72
1.716
1.716
1.725
1.735
1.716
1.706
1.72
1.74
1.74
1.74
1.745
1.76
1.755
1.73
1.74
1.75
1.74
1.725
1.725
1.735
1.74
1.725
1.735
1.76
1.764
1.755
1.75
1.76
1.764
1.74
1.725
1.735
1.745
1.745
1.745
1.755
1.769
1.769
1.76
1.774
1.799
1.799
1.789
1.794
1.808
1.818
1.799
1.799
1.813
1.813
1.799
1.784
1.784
1.794
1.774
1.76
1.784
1.804
1.808
1.804
1.808
1.813
1.799
1.769
1.774
1.784
1.774
1.76
1.75
1.755
1.745
1.716
1.706
1.716
1.711
1.701
1.696
1.701
1.711
1.686
1.676
1.691
1.706
1.691
1.672
1.667
1.676
1.667
1.642
1.647
1.662
1.652
1.637
1.632
1.647
1.652
1.632
1.637
1.657
1.662
1.647
1.642
1.652
1.667
1.647
1.632
1.642
1.657
1.652
1.642
1.637
1.637
1.623
1.598
1.613
1.642
1.647
1.652
1.657
1.681
1.691
1.667
1.667
1.676
1.672
1.657
1.647
1.667
1.681
1.662
1.632
1.637
1.642
1.632
1.623
1.623
1.642
1.637
1.623
1.637
1.657
1.662
1.657
1.652
1.667
1.672
1.652
1.647
1.667
1.667
1.662
1.652
1.657
1.662
1.642
1.632
1.652
1.676
1.676
1.676
1.686
1.701
1.696
1.676
1.681
1.696
1.686
1.672
1.662
1.667
1.667
1.647
1.642
1.652
1.652
1.647
1.647
1.662
1.676
1.667
1.667
1.691
1.711
1.701
1.691
1.696
1.711
1.701
1.662
1.662
1.676
1.672
1.652
1.642
1.652
1.657
1.637
1.642
1.662
1.672
1.657
1.647
1.652
1.662
1.642
1.623
1.637
1.647
1.642
1.632
1.632
1.652
1.642
1.623
1.632
1.652
1.652
1.642
1.632
1.642
1.642
1.623
1.618
1.637
1.642
1.628
1.613
1.628
1.647
1.632
1.613
1.618
1.628
1.628
1.628
1.632
1.647
1.647
1.623
1.632
1.647
1.657
1.647
1.642
1.647
1.652
1.628
1.628
1.657
1.676
1.672
1.676
1.696
1.72
1.716
1.706
1.725
1.745
1.74
1.72
1.706
1.706
1.681
1.632
1.608
1.593
1.564
1.53
1.496
1.491
1.481
1.452
1.452
1.491
1.525
1.549
1.569
1.608
1.642
1.642
1.642
1.662
1.681
1.681
1.676
1.686
1.706
1.711
1.691
1.706
1.725
1.716
1.706
1.701
1.72
1.725
1.706
1.701
1.72
1.73
1.716
1.701
1.706
1.716
1.696
1.681
1.701
1.72
1.72
1.716
1.72
1.73
1.72
1.691
1.696
1.716
1.72
1.716
1.72
1.74
1.74
1.711
1.701
1.72
1.73
1.72
1.716
1.725
1.745
1.74
1.74
1.755
1.76
1.755
1.745
1.74
1.75
1.745
1.73
1.75
1.779
1.784
1.784
1.774
1.784
1.794
1.769
1.764
1.784
1.789
1.784
1.774
1.779
1.784
1.764
1.74
1.755
1.774
1.779
1.779
1.794
1.818
1.823
1.804
1.808
1.823
1.818
1.804
1.789
1.789
1.789
1.764
1.755
1.774
1.784
1.774
1.764
1.769
1.784
1.764
1.75
1.769
1.779
1.769
1.76
1.764
1.774
1.764
1.735
1.735
1.75
1.74
1.725
1.711
1.711
1.706
1.667
1.652
1.667
1.667
1.662
1.652
1.667
1.686
1.681
1.667
1.681
1.686
1.672
1.652
1.652
1.662
1.662
1.637
1.637
1.652
1.657
1.647
1.642
1.657
1.652
1.623
1.613
1.628
1.637
1.637
1.632
1.647
1.672
1.672
1.667
1.681
1.686
1.672
1.652
1.642
1.652
1.647
1.628
1.637
1.662
1.657
1.642
1.632
1.647
1.657
1.637
1.632
1.657
1.672
1.672
1.667
1.676
1.686
1.667
1.647
1.657
1.672
1.672
1.662
1.667
1.676
1.676
1.652
1.652
1.667
1.667
1.652
1.642
1.657
1.667
1.647
1.642
1.667
1.681
1.672
1.667
1.676
1.686
1.676
1.662
1.681
1.696
1.686
1.672
1.667
1.681
1.672
1.647
1.647
1.662
1.662
1.662
1.672
1.696
1.706
1.686
1.676
1.696
1.706
1.691
1.676
1.672
1.681
1.667
1.642
1.657
1.672
1.672
1.662
1.657
1.667
1.657
1.628
1.632
1.652
1.662
1.652
1.652
1.667
1.667
1.637
1.623
1.632
1.637
1.623
1.613
1.623
1.642
1.642
1.637
1.662
1.686
1.676
1.647
1.632
1.637
1.628
1.598
1.608
1.632
1.647
1.652
1.657
1.676
1.686
1.662
1.647
1.657
1.662
1.642
1.632
1.637
1.652
1.642
1.623
1.637
1.657
1.662
1.662
1.672
1.691
1.701
1.681
1.691
1.716
1.73
1.735
1.735
1.75
1.755
1.716
1.686
1.676
1.652
1.608
1.564
1.535
1.515
1.481
1.457
1.471
1.5
1.51
1.51
1.525
1.564
1.588
1.588
1.618
1.652
1.667
1.657
1.657
1.672
1.686
1.667
1.662
1.676
1.686
1.686
1.686
1.701
1.716
1.706
1.686
1.701
1.72
1.716
1.706
1.706
1.716
1.711
1.681
1.681
1.696
1.701
1.696
1.696
1.711
1.72
1.701
1.696
1.711
1.72
1.716
1.706
1.711
1.725
1.72
1.711
1.725
1.745
1.745
1.735
1.73
1.74
1.735
1.711
1.711
1.73
1.73
1.725
1.725
1.745
1.76
1.74
1.725
1.75
1.76
1.75
1.74
1.74
1.755
1.75
1.735
1.755
1.774
1.779
1.779
1.779
1.789
1.789
1.764
1.764
1.779
1.779
1.774
1.769
1.784
1.799
1.779
1.774
1.794
1.808
1.804
1.794
1.799
1.804
1.784
1.76
1.769
1.789
1.789
1.779
1.784
1.799
1.799
1.774
1.774
1.794
1.794
1.779
1.76
1.76
1.764
1.735
1.72
1.725
1.725
1.706
1.691
1.686
1.696
1.686
1.667
1.681
1.696
1.696
1.691
1.691
1.706
1.711
1.676
1.672
1.681
1.676
1.657
1.642
1.642
1.652
1.628
1.613
1.632
1.652
1.652
1.642
1.647
1.662
1.647
1.618
1.623
1.637
1.632
1.623
1.628
1.652
1.662
1.642
1.642
1.652
1.642
1.628
1.618
1.632
1.647
1.632
1.628
1.652
1.676
1.676
1.667
1.657
1.662
1.647
1.623
1.632
1.647
1.652
1.647
1.652
1.676
1.686
1.667
1.667
1.686
1.691
1.676
1.667
1.662
1.657
1.628
1.618
1.632
1.647
1.642
1.637
1.647
1.672
1.667
1.657
1.672
1.691
1.681
1.672
1.667
1.676
1.681
1.662
1.667
1.691
1.696
1.691
1.691
1.706
1.716
1.696
1.681
1.696
1.706
1.696
1.686
1.686
1.696
1.681
1.662
1.672
1.691
1.691
1.681
1.681
1.691
1.696
1.662
1.652
1.657
1.652
1.642
1.628
1.623
1.628
1.613
1.603
1.623
1.637
1.637
1.637
1.647
1.662
1.652
1.628
1.637
1.657
1.647
1.628
1.613
1.628
1.628
1.613
1.613
1.637
1.647
1.642
1.637
1.647
1.657
1.632
1.618
1.632
1.637
1.632
1.623
1.637
1.652
1.642
1.623
1.637
1.652
1.642
1.618
1.613
1.628
1.637
1.628
1.637
1.672
1.691
1.701
1.701
1.72
1.735
1.711
1.696
1.701
1.701
1.686
1.667
1.652
1.637
1.603
1.554
1.53
1.52
1.496
1.466
1.457
1.471
1.491
1.491
1.515
1.564
1.598
1.623
1.637
1.657
1.672
1.657
1.657
1.676
1.676
1.662
1.652
1.657
1.681
1.681
1.667
1.681
1.706
1.711
1.706
1.706
1.716
1.706
1.662
1.642
1.657
1.672
1.672
1.672
1.686
1.711
1.701
1.696
1.711
1.72
1.711
1.691
1.691
1.711
1.716
1.701
1.716
1.735
1.73
1.711
1.696
1.701
1.706
1.681
1.681
1.706
1.725
1.725
1.72
1.725
1.735
1.72
1.711
1.72
1.735
1.73
1.725
1.735
1.755
1.745
1.72
1.73
1.75
1.755
1.755
1.755
1.76
1.755
1.73
1.73
1.76
1.774
1.774
1.769
1.784
1.804
1.789
1.774
1.784
1.794
1.779
1.764
1.764
1.784
1.789
1.774
1.779
1.799
1.794
1.784
1.779
1.794
1.799
1.769
1.764
1.784
1.789
1.774
1.755
1.755
1.764
1.745
1.725
1.735
1.745
1.735
1.72
1.72
1.73
1.72
1.686
1.691
1.711
1.706
1.691
1.686
1.701
1.706
1.676
1.667
1.681
1.686
1.672
1.657
1.662
1.672
1.657
1.632
1.637
1.642
1.632
1.623
1.628
1.642
1.637
1.618
1.632
1.657
1.662
1.652
1.647
1.667
1.676
1.652
1.647
1.662
1.672
1.667
1.657
1.657
1.662
1.632
1.613
1.623
1.642
1.642
1.637
1.642
1.662
1.662
1.642
1.657
1.672
1.657
1.632
1.623
1.637
1.652
1.628
1.623
1.647
1.667
1.667
1.667
1.676
1.686
1.672
1.652
1.662
1.667
1.657
1.642
1.642
1.662
1.657
1.637
1.652
1.681
1.686
1.681
1.676
1.681
1.681
1.657
1.652
1.667
1.672
1.662
1.657
1.672
1.686
1.672
1.662
1.681
1.691
1.676
1.657
1.657
1.676
1.676
1.652
1.662
1.691
1.701
1.701
1.706
1.72
1.725
1.696
1.681
1.696
1.701
1.691
1.681
1.691
1.706
1.691
1.667
1.681
1.686
1.672
1.657
1.652
1.662
1.657
1.637
1.642
1.662
1.662
1.652
1.647
1.662
1.667
1.642
1.642
1.657
1.657
1.637
1.628
1.632
1.647
1.632
1.618
1.637
1.662
1.667
1.662
1.657
1.667
1.652
1.623
1.618
1.632
1.632
1.628
1.623
1.642
1.652
1.628
1.623
1.647
1.657
1.647
1.637
1.642
1.647
1.632
1.618
1.628
1.647
1.642
1.642
1.647
1.667
1.672
1.652
1.667
1.696
1.696
1.686
1.686
1.706
1.73
1.716
1.72
1.735
1.73
1.706
1.672
1.647
1.623
1.569
1.52
1.515
1.515
1.5
1.491
1.481
1.496
1.505
1.505
1.535
1.584
1.613
1.637
1.652
1.681
1.701
1.676
1.667
1.681
1.691
1.686
1.676
1.686
1.701
1.686
1.662
1.672
1.686
1.686
1.681
1.691
1.716
1.72
1.701
1.696
1.706
1.701
1.691
1.686
1.696
1.711
1.701
1.696
1.706
1.706
1.696
1.691
1.696
1.711
1.701
1.686
1.696
1.716
1.711
1.701
1.696
1.706
1.711
1.691
1.701
1.725
1.725
1.716
1.716
1.725
1.735
1.72
1.72
1.75
1.769
1.764
1.75
1.745
1.75
1.73
1.716
1.72
1.73
1.725
1.72
1.725
1.75
1.755
1.74
1.745
1.769
1.779
1.774
1.774
1.784
1.789
1.76
1.75
1.769
1.779
1.774
1.769
1.784
1.799
1.784
1.764
1.774
1.789
1.789
1.784
1.779
1.789
1.784
1.76
1.769
1.794
1.794
1.779
1.764
1.769
1.774
1.745
1.735
1.75
1.75
1.73
1.711
1.706
1.72
1.706
1.681
1.691
1.701
1.691
1.681
1.676
1.686
1.676
1.647
1.642
1.657
1.657
1.652
1.652
1.667
1.681
1.662
1.652
1.667
1.672
1.657
1.647
1.647
1.657
1.637
1.618
1.632
1.647
1.647
1.637
1.637
1.652
1.652
1.632
1.632
1.647
1.652
1.637
1.632
1.642
1.657
1.642
1.632
1.657
1.667
1.657
1.642
1.637
1.647
1.637
1.618
1.628
1.642
1.632
1.628
1.632
1.652
1.657
1.628
1.632
1.657
1.672
1.672
1.672
1.691
1.711
1.686
1.662
1.667
1.667
1.652
1.632
1.628
1.642
1.637
1.632
1.652
1.672
1.672
1.667
1.667
1.681
1.672
1.647
1.647
1.667
1.672
1.662
1.657
1.667
1.676
1.657
1.652
1.662
1.667
1.647
1.637
1.642
1.657
1.642
1.632
1.647
1.676
1.676
1.672
1.667
1.681
1.681
1.657
1.652
1.672
1.681
1.672
1.667
1.672
1.681
1.662
1.647
1.667
1.672
1.662
1.657
1.662
1.681
1.672
1.662
1.686
1.716
1.716
1.701
1.691
1.696
1.691
1.662
1.657
1.672
1.676
1.676
1.676
1.691
1.701
1.676
1.662
1.672
1.676
1.662
1.642
1.642
1.657
1.647
1.628
1.642
1.657
1.657
1.647
1.647
1.652
1.647
1.613
1.613
1.628
1.642
1.642
1.642
1.652
1.662
1.642
1.632
1.647
1.657
1.647
1.637
1.637
1.652
1.642
1.618
1.623
1.637
1.632
1.618
1.613
1.632
1.637
1.623
1.628
1.652
1.657
1.652
1.647
1.667
1.681
1.657
1.647
1.657
1.652
1.632
1.618
1.632
1.662
1.667
1.662
1.696
1.735
1.755
1.76
1.764
1.774
1.764
1.701
1.662
1.642
1.613
1.574
1.54
1.525
1.515
1.481
1.471
1.496
1.52
1.525
1.53
1.544
1.579
1.593
1.598
1.632
1.667
1.681
1.681
1.686
1.706
1.711
1.686
1.691
1.706
1.706
1.696
1.686
1.691
1.696
1.676
1.667
1.686
1.701
1.691
1.681
1.676
1.691
1.686
1.667
1.686
1.711
1.72
1.711
1.716
1.73
1.73
1.696
1.686
1.696
1.691
1.681
1.676
1.686
1.701
1.686
1.681
1.706
1.73
1.73
1.725
1.73
1.75
1.74
1.711
1.711
1.72
1.72
1.72
1.72
1.745
1.75
1.73
1.735
1.755
1.755
1.73
1.711
1.72
1.735
1.716
1.711
1.74
1.76
1.764
1.764
1.779
1.799
1.789
1.75
1.75
1.76
1.76
1.745
1.75
1.769
1.784
1.769
1.774
1.799
1.804
1.794
1.789
1.799
1.813
1.794
1.784
1.799
1.804
1.789
1.769
1.764
1.774
1.764
1.755
1.769
1.789
1.784
1.769
1.764
1.774
1.769
1.735
1.725
1.745
1.755
1.745
1.735
1.73
1.735
1.706
1.681
1.686
1.691
1.686
1.676
1.676
1.686
1.676
1.647
1.647
1.662
1.662
1.652
1.647
1.657
1.662
1.637
1.637
1.657
1.662
1.657
1.647
1.657
1.667
1.647
1.628
1.637
1.647
1.642
1.632
1.632
1.642
1.632
1.608
1.623
1.647
1.647
1.637
1.637
1.652
1.662
1.647
1.647
1.657
1.657
1.642
1.637
1.642
1.662
1.642
1.632
1.647
1.672
1.662
1.652
1.647
1.657
1.647
1.628
1.637
1.662
1.657
1.652
1.652
1.672
1.676
1.657
1.647
1.662
1.667
1.662
1.657
1.672
1.681
1.667
1.647
1.662
1.662
1.652
1.637
1.637
1.652
1.647
1.632
1.647
1.676
1.676
1.667
1.667
1.681
1.676
1.637
1.628
1.642
1.647
1.642
1.637
1.657
1.681
1.672
1.662
1.676
1.691
1.676
1.662
1.657
1.667
1.662
1.637
1.647
1.672
1.676
1.672
1.672
1.681
1.676
1.647
1.642
1.657
1.662
1.647
1.642
1.657
1.681
1.672
1.662
1.681
1.696
1.696
1.681
1.676
1.681
1.672
1.647
1.652
1.672
1.676
1.676
1.681
1.701
1.711
1.686
1.681
1.696
1.696
1.676
1.667
1.676
1.691
1.672
1.662
1.681
1.696
1.686
1.667
1.667
1.672
1.657
1.623
1.628
1.642
1.642
1.632
1.628
1.642
1.657
1.642
1.642
1.672
1.681
1.672
1.662
1.662
1.672
1.647
1.628
1.637
1.647
1.642
1.623
1.618
1.632
1.632
1.613
1.628
1.647
1.647
1.637
1.628
1.642
1.652
1.637
1.632
1.652
1.662
1.662
1.662
1.672
1.686
1.667
1.642
1.647
1.652
1.642
1.628
1.632
1.652
1.667
1.667
1.696
1.725
1.745
1.75
1.755
1.764
1.755
1.716
1.691
1.686
1.676
1.647
1.618
1.598
1.588
1.549
1.515
1.515
1.52
1.51
1.505
1.515
1.544
1.554
1.559
1.593
1.637
1.662
1.672
1.676
1.691
1.706
1.681
1.676
1.691
1.686
1.667
1.657
1.672
1.686
1.676
1.662
1.691
1.72
1.725
1.716
1.716
1.735
1.735
1.711
1.706
1.711
1.706
1.691
1.686
1.701
1.711
1.686
1.686
1.706
1.725
1.725
1.72
1.73
1.75
1.73
1.716
1.73
1.745
1.73
1.711
1.706
1.72
1.716
1.691
1.701
1.73
1.74
1.74
1.74
1.745
1.745
1.716
1.706
1.72
1.73
1.73
1.73
1.745
1.769
1.76
1.745
1.755
1.769
1.769
1.764
1.764
1.769
1.76
1.74
1.755
1.779
1.784
1.779
1.779
1.799
1.813
1.799
1.794
1.813
1.818
1.808
1.794
1.799
1.813
1.804
1.784
1.799
1.808
1.799
1.789
1.789
1.799
1.794
1.764
1.769
1.784
1.784
1.774
1.764
1.769
1.769
1.74
1.735
1.755
1.764
1.75
1.74
1.74
1.74
1.711
1.686
1.696
1.711
1.706
1.696
1.696
1.706
1.701
1.676
1.681
1.696
1.691
1.676
1.662
1.672
1.681
1.662
1.647
1.662
1.667
1.662
1.652
1.657
1.667
1.662
1.642
1.657
1.672
1.662
1.652
1.657
1.672
1.672
1.647
1.647
1.662
1.657
1.647
1.642
1.652
1.662
1.632
1.618
1.632
1.647
1.642
1.637
1.642
1.662
1.652
1.642
1.657
1.672
1.662
1.647
1.647
1.662
1.662
1.637
1.642
1.657
1.662
1.657
1.647
1.657
1.672
1.652
1.652
1.672
1.681
1.676
1.672
1.676
1.691
1.676
1.657
1.667
1.676
1.667
1.652
1.647
1.657
1.652
1.632
1.642
1.667
1.676
1.667
1.662
1.672
1.681
1.657
1.642
1.657
1.672
1.667
1.662
1.667
1.676
1.657
1.637
1.642
1.657
1.657
1.647
1.647
1.662
1.662
1.637
1.637
1.652
1.657
1.652
1.657
1.676
1.686
1.667
1.662
1.676
1.681
1.667
1.657
1.657
1.667
1.642
1.618
1.632
1.652
1.657
1.652
1.657
1.681
1.691
1.672
1.676
1.696
1.686
1.652
1.628
1.637
1.652
1.632
1.637
1.662
1.681
1.681
1.681
1.686
1.701
1.681
1.662
1.662
1.667
1.657
1.647
1.647
1.672
1.676
1.662
1.667
1.696
1.711
1.711
1.701
1.706
1.716
1.696
1.681
1.696
1.711
1.706
1.696
1.696
1.711
1.696
1.672
1.681
1.696
1.686
1.672
1.667
1.681
1.676
1.647
1.652
1.676
1.672
1.657
1.642
1.647
1.657
1.632
1.623
1.642
1.657
1.662
1.657
1.667
1.681
1.672
1.647
1.652
1.662
1.657
1.647
1.642
1.652
1.657
1.637
1.642
1.657
1.652
1.642
1.642
1.652
1.662
1.642
1.632
1.647
1.657
1.647
1.642
1.647
1.667
1.662
1.647
1.667
1.691
1.691
1.686
1.681
1.691
1.681
1.657
1.657
1.672
1.681
1.691
1.706
1.735
1.755
1.745
1.74
1.76
1.76
1.74
1.711
1.696
1.686
1.652
1.613
1.593
1.588
1.559
1.53
1.515
1.52
1.515
1.5
1.52
1.569
1.603
1.618
1.632
1.657
1.686
1.676
1.672
1.691
1.701
1.691
1.681
1.691
1.716
1.706
1.691
1.706
1.73
1.73
1.73
1.725
1.735
1.725
1.686
1.676
1.696
1.706
1.706
1.706
1.72
1.745
1.73
1.725
1.73
1.72
1.701
1.686
1.686
1.706
1.701
1.696
1.72
1.75
1.755
1.74
1.73
1.74
1.735
1.706
1.701
1.716
1.725
1.72
1.72
1.74
1.755
1.74
1.73
1.75
1.764
1.764
1.76
1.764
1.779
1.764
1.735
1.74
1.755
1.755
1.75
1.75
1.76
1.769
1.755
1.764
1.789
1.789
1.764
1.745
1.75
1.76
1.745
1.745
1.779
1.808
1.813
1.818
1.828
1.843
1.828
1.799
1.799
1.808
1.804
1.799
1.799
1.808
1.818
1.794
1.794
1.808
1.799
1.784
1.769
1.774
1.784
1.76
1.75
1.764
1.784
1.779
1.779
1.784
1.804
1.789
1.76
1.75
1.75
1.735
1.72
1.706
1.716
1.711
1.686
1.686
1.706
1.711
1.701
1.686
1.676
1.676
1.652
1.642
1.657
1.667
1.667
1.662
1.672
1.691
1.686
1.667
1.676
1.686
1.681
1.672
1.667
1.681
1.681
1.657
1.657
1.676
1.676
1.662
1.652
1.657
1.667
1.647
1.637
1.657
1.667
1.657
1.652
1.657
1.672
1.667
1.642
1.652
1.672
1.672
1.662
1.657
1.672
1.676
1.657
1.662
1.686
1.696
1.686
1.681
1.691
1.701
1.676
1.652
1.662
1.672
1.667
1.657
1.662
1.681
1.676
1.662
1.686
1.706
1.706
1.691
1.686
1.696
1.691
1.667
1.672
1.691
1.696
1.686
1.676
1.681
1.691
1.676
1.662
1.672
1.681
1.676
1.667
1.676
1.696
1.686
1.667
1.672
1.691
1.691
1.672
1.667
1.676
1.681
1.657
1.662
1.686
1.701
1.696
1.691
1.701
1.711
1.691
1.667
1.676
1.681
1.672
1.662
1.662
1.681
1.681
1.662
1.672
1.696
1.691
1.676
1.672
1.681
1.681
1.657
1.657
1.676
1.686
1.681
1.676
1.686
1.701
1.686
1.676
1.691
1.706
1.696
1.686
1.686
1.701
1.691
1.672
1.681
1.701
1.701
1.701
1.706
1.72
1.725
1.701
1.701
1.72
1.735
1.73
1.72
1.725
1.73
1.706
1.681
1.681
1.681
1.662
1.642
1.642
1.662
1.662
1.647
1.662
1.686
1.691
1.676
1.672
1.676
1.672
1.637
1.628
1.637
1.642
1.632
1.632
1.647
1.667
1.652
1.642
1.662
1.672
1.662
1.652
1.657
1.672
1.662
1.632
1.637
1.657
1.662
1.652
1.652
1.662
1.662
1.632
1.618
1.637
1.647
1.642
1.642
1.657
1.672
1.657
1.647
1.662
1.676
1.667
1.652
1.652
1.667
1.672
1.662
1.681
1.711
1.72
1.716
1.72
1.735
1.745
1.725
1.72
1.73
1.725
1.706
1.672
1.652
1.637
1.588
1.554
1.544
1.54
1.525
1.505
1.505
1.525
1.53
1.525
1.554
1.598
1.623
1.642
1.657
1.686
1.706
1.686
1.686
1.701
1.701
1.686
1.676
1.676
1.686
1.667
1.647
1.667
1.686
1.691
1.696
1.711
1.73
1.725
1.706
1.716
1.73
1.72
1.706
1.696
1.706
1.716
1.701
1.696
1.711
1.72
1.711
1.701
1.711
1.73
1.72
1.711
1.735
1.755
1.75
1.74
1.74
1.75
1.745
1.72
1.73
1.75
1.75
1.74
1.735
1.745
1.75
1.725
1.716
1.735
1.745
1.745
1.74
1.755
1.769
1.755
1.735
1.745
1.755
1.755
1.745
1.745
1.764
1.76
1.74
1.75
1.774
1.774
1.769
1.769
1.784
1.799
1.789
1.794
1.818
1.828
1.823
1.813
1.818
1.823
1.799
1.779
1.789
1.804
1.794
1.784
1.789
1.808
1.808
1.789
1.799
1.823
1.823
1.804
1.794
1.794
1.784
1.755
1.745
1.755
1.755
1.75
1.745
1.764
1.779
1.764
1.74
1.745
1.75
1.74
1.72
1.706
1.711
1.706
1.676
1.672
1.681
1.672
1.657
1.657
1.672
1.686
1.672
1.662
1.681
1.686
1.676
1.657
1.657
1.662
1.642
1.628
1.652
1.672
1.672
1.662
1.657
1.667
1.657
1.632
1.632
1.652
1.652
1.642
1.637
1.647
1.652
1.628
1.623
1.642
1.662
1.657
1.652
1.662
1.681
1.667
1.652
1.667
1.676
1.667
1.652
1.647
1.657
1.652
1.628
1.637
1.657
1.662
1.652
1.657
1.672
1.686
1.662
1.652
1.667
1.672
1.662
1.647
1.657
1.681
1.676
1.657
1.662
1.667
1.657
1.642
1.642
1.657
1.657
1.637
1.652
1.686
1.691
1.686
1.676
1.686
1.686
1.652
1.642
1.657
1.672
1.667
1.662
1.672
1.686
1.667
1.647
1.662
1.676
1.672
1.662
1.662
1.672
1.662
1.632
1.628
1.637
1.632
1.623
1.623
1.637
1.647
1.632
1.632
1.662
1.676
1.672
1.662
1.676
1.696
1.686
1.672
1.686
1.701
1.696
1.676
1.667
1.662
1.642
1.623
1.632
1.657
1.662
1.657
1.662
1.686
1.706
1.686
1.681
1.706
1.72
1.716
1.711
1.72
1.735
1.711
1.676
1.676
1.672
1.657
1.637
1.637
1.652
1.647
1.628
1.637
1.652
1.652
1.637
1.623
1.632
1.642
1.623
1.623
1.637
1.647
1.642
1.632
1.632
1.647
1.628
1.603
1.598
1.608
1.603
1.598
1.603
1.623
1.628
1.608
1.618
1.642
1.642
1.628
1.618
1.628
1.637
1.618
1.618
1.637
1.647
1.637
1.618
1.618
1.628
1.618
1.603
1.618
1.637
1.642
1.647
1.652
1.662
1.647
1.618
1.613
1.628
1.628
1.628
1.632
1.667
1.701
1.701
1.706
1.735
1.75
1.74
1.725
1.706
1.686
1.642
1.593
1.569
1.549
1.52
1.491
1.476
1.491
1.491
1.476
1.5
1.54
1.569
1.584
1.603
1.623
1.642
1.628
1.632
1.657
1.672
1.667
1.667
1.676
1.701
1.691
1.672
1.676
1.686
1.672
1.657
1.652
1.672
1.676
1.662
1.672
1.696
1.706
1.701
1.696
1.706
1.716
1.696
1.696
1.716
1.72
1.711
1.701
1.701
1.711
1.691
1.667
1.681
1.701
1.706
1.701
1.711
1.735
1.745
1.725
1.73
1.75
1.745
1.73
1.711
1.711
1.716
1.696
1.686
1.706
1.711
1.706
1.701
1.711
1.73
1.72
1.706
1.725
1.745
1.745
1.74
1.74
1.76
1.76
1.735
1.74
1.76
1.76
1.75
1.74
1.75
1.755
1.735
1.735
1.76
1.779
1.784
1.784
1.789
1.804
1.794
1.774
1.779
1.784
1.76
1.735
1.73
1.745
1.755
1.74
1.755
1.784
1.794
1.784
1.784
1.789
1.794
1.76
1.74
1.745
1.745
1.735
1.73
1.74
1.755
1.735
1.711
1.72
1.74
1.735
1.72
1.716
1.725
1.716
1.681
1.676
1.686
1.681
1.667
1.662
1.676
1.681
1.662
1.647
1.662
1.662
1.652
1.642
1.642
1.657
1.642
1.628
1.637
1.647
1.637
1.623
1.623
1.642
1.642
1.623
1.628
1.652
1.657
1.657
1.657
1.662
1.662
1.632
1.623
1.647
1.662
1.657
1.642
1.637
1.647
1.637
1.623
1.637
1.657
1.662
1.662
1.672
1.686
1.691
1.662
1.662
1.676
1.676
1.667
1.657
1.672
1.676
1.652
1.637
1.657
1.672
1.667
1.657
1.667
1.686
1.681
1.667
1.676
1.686
1.672
1.657
1.652
1.662
1.667
1.647
1.652
1.676
1.681
1.676
1.672
1.686
1.696
1.676
1.662
1.681
1.691
1.686
1.676
1.676
1.686
1.676
1.657
1.667
1.676
1.672
1.657
1.657
1.667
1.667
1.642
1.647
1.662
1.667
1.662
1.657
1.667
1.681
1.662
1.657
1.676
1.701
1.701
1.686
1.667
1.662
1.637
1.613
1.623
1.642
1.642
1.647
1.662
1.691
1.706
1.691
1.696
1.711
1.711
1.701
1.696
1.711
1.725
1.706
1.691
1.701
1.706
1.696
1.686
1.691
1.711
1.706
1.681
1.686
1.691
1.672
1.652
1.637
1.647
1.647
1.628
1.632
1.662
1.667
1.652
1.637
1.637
1.642
1.623
1.618
1.637
1.657
1.652
1.637
1.637
1.647
1.637
1.613
1.618
1.632
1.632
1.632
1.642
1.662
1.672
1.642
1.637
1.652
1.652
1.642
1.637
1.642
1.657
1.637
1.628
1.652
1.672
1.662
1.652
1.647
1.657
1.647
1.623
1.632
1.647
1.647
1.642
1.642
1.662
1.667
1.642
1.642
1.662
1.672
1.676
1.681
1.706
1.735
1.73
1.716
1.711
1.691
1.657
1.613
1.584
1.569
1.53
1.496
1.5
1.525
1.53
1.525
1.53
1.554
1.569
1.564
1.579
1.618
1.642
1.647
1.657
1.676
1.696
1.681
1.672
1.686
1.701
1.691
1.686
1.691
1.706
1.691
1.672
1.681
1.696
1.691
1.676
1.672
1.691
1.701
1.681
1.676
1.681
1.681
1.676
1.672
1.686
1.701
1.681
1.672
1.706
1.735
1.735
1.72
1.716
1.72
1.701
1.676
1.686
1.706
1.711
1.711
1.72
1.74
1.745
1.72
1.716
1.73
1.73
1.716
1.706
1.72
1.735
1.72
1.72
1.74
1.745
1.735
1.725
1.735
1.745
1.725
1.696
1.706
1.73
1.735
1.735
1.745
1.76
1.764
1.74
1.75
1.769
1.774
1.764
1.755
1.764
1.784
1.769
1.76
1.779
1.789
1.784
1.774
1.779
1.799
1.794
1.779
1.794
1.813
1.808
1.794
1.784
1.794
1.789
1.76
1.755
1.769
1.774
1.764
1.755
1.764
1.774
1.755
1.74
1.755
1.774
1.764
1.755
1.76
1.769
1.745
1.701
1.696
1.706
1.696
1.676
1.667
1.681
1.691
1.676
1.681
1.696
1.696
1.681
1.662
1.667
1.672
1.647
1.632
1.652
1.662
1.652
1.642
1.642
1.657
1.652
1.632
1.647
1.667
1.672
1.662
1.657
1.667
1.667
1.637
1.632
1.642
1.637
1.618
1.608
1.623
1.637
1.628
1.618
1.642
1.667
1.672
1.662
1.657
1.672
1.662
1.632
1.632
1.642
1.642
1.637
1.642
1.662
1.667
1.642
1.642
1.667
1.681
1.672
1.662
1.662
1.672
1.642
1.623
1.637
1.652
1.647
1.632
1.637
1.657
1.662
1.642
1.657
1.676
1.681
1.672
1.647
1.642
1.637
1.608
1.608
1.628
1.632
1.632
1.637
1.672
1.701
1.691
1.672
1.681
1.686
1.676
1.662
1.657
1.662
1.652
1.637
1.652
1.676
1.686
1.676
1.672
1.676
1.672
1.642
1.637
1.652
1.657
1.647
1.647
1.662
1.676
1.662
1.652
1.667
1.672
1.662
1.642
1.642
1.652
1.647
1.628
1.647
1.672
1.676
1.667
1.662
1.681
1.686
1.662
1.657
1.672
1.672
1.667
1.657
1.667
1.681
1.672
1.662
1.681
1.701
1.701
1.696
1.701
1.716
1.711
1.681
1.681
1.691
1.686
1.676
1.676
1.696
1.706
1.686
1.676
1.686
1.686
1.662
1.642
1.642
1.647
1.623
1.613
1.632
1.652
1.652
1.647
1.652
1.672
1.667
1.642
1.647
1.667
1.667
1.657
1.652
1.672
1.672
1.642
1.623
1.628
1.623
1.613
1.603
1.613
1.632
1.623
1.623
1.647
1.662
1.657
1.642
1.642
1.652
1.642
1.618
1.632
1.652
1.657
1.647
1.642
1.652
1.652
1.618
1.608
1.628
1.637
1.637
1.637
1.652
1.672
1.662
1.657
1.681
1.706
1.706
1.701
1.706
1.73
1.735
1.72
1.73
1.745
1.725
1.681
1.632
1.603
1.574
1.52
1.496
1.496
1.491
1.486
1.486
1.51
1.54
1.535
1.54
1.569
1.603
1.623
1.637
1.657
1.681
1.676
1.657
1.662
1.676
1.672
1.662
1.662
1.686
1.706
1.691
1.691
1.706
1.716
1.706
1.696
1.701
1.711
1.696
1.676
1.691
1.706
1.706
1.696
1.701
1.716
1.701
1.667
1.667
1.676
1.676
1.672
1.672
1.691
1.711
1.696
1.701
1.725
1.73
1.72
1.711
1.716
1.725
1.706
1.701
1.72
1.74
1.74
1.735
1.735
1.75
1.745
1.725
1.73
1.745
1.74
1.725
1.716
1.73
1.735
1.711
1.711
1.735
1.75
1.745
1.735
1.745
1.764
1.755
1.74
1.75
1.764
1.764
1.76
1.764
1.789
1.784
1.764
1.774
1.799
1.794
1.779
1.764
1.774
1.784
1.764
1.76
1.779
1.794
1.799
1.799
1.808
1.823
1.804
1.789
1.799
1.808
1.799
1.784
1.774
1.779
1.769
1.74
1.745
1.764
1.764
1.755
1.755
1.764
1.76
1.725
1.706
1.716
1.716
1.696
1.681
1.686
1.701
1.691
1.676
1.681
1.681
1.662
1.652
1.652
1.672
1.667
1.652
1.662
1.676
1.672
1.657
1.647
1.647
1.647
1.623
1.623
1.647
1.657
1.657
1.652
1.662
1.672
1.657
1.632
1.642
1.652
1.647
1.637
1.637
1.652
1.642
1.618
1.628
1.657
1.662
1.657
1.657
1.662
1.657
1.628
1.613
1.618
1.623
1.613
1.613
1.637
1.672
1.676
1.667
1.681
1.691
1.681
1.662
1.647
1.657
1.647
1.623
1.628
1.647
1.652
1.647
1.642
1.657
1.667
1.647
1.652
1.676
1.691
1.686
1.676
1.681
1.691
1.672
1.647
1.662
1.676
1.672
1.667
1.672
1.681
1.676
1.647
1.642
1.647
1.632
1.623
1.628
1.642
1.642
1.618
1.623
1.652
1.672
1.667
1.662
1.672
1.686
1.676
1.662
1.676
1.691
1.681
1.667
1.657
1.667
1.667
1.642
1.652
1.672
1.672
1.657
1.652
1.657
1.662
1.632
1.628
1.647
1.662
1.657
1.652
1.652
1.672
1.667
1.652
1.672
1.686
1.686
1.676
1.676
1.691
1.681
1.657
1.657
1.662
1.647
1.632
1.632
1.657
1.676
1.672
1.686
1.716
1.725
1.716
1.696
1.686
1.681
1.652
1.628
1.642
1.657
1.657
1.657
1.662
1.676
1.672
1.642
1.642
1.652
1.652
1.642
1.647
1.667
1.676
1.662
1.662
1.676
1.676
1.662
1.647
1.652
1.662
1.637
1.603
1.603
1.613
1.613
1.603
1.608
1.632
1.637
1.628
1.642
1.662
1.657
1.642
1.637
1.647
1.657
1.632
1.628
1.652
1.667
1.652
1.642
1.642
1.657
1.647
1.632
1.657
1.681
1.681
1.681
1.686
1.706
1.711
1.701
1.716
1.745
1.76
1.755
1.745
1.745
1.73
1.686
1.652
1.642
1.618
1.569
1.52
1.5
1.5
1.476
1.461
1.481
1.505
1.52
1.54
1.574
1.613
1.623
1.613
1.628
1.657
1.662
1.662
1.667
1.686
1.706
1.691
1.696
1.725
1.735
1.73
1.72
1.725
1.735
1.711
1.691
1.706
1.72
1.716
1.706
1.711
1.725
1.72
1.691
1.696
1.711
1.711
1.701
1.696
1.716
1.735
1.73
1.73
1.73
1.711
1.691
1.681
1.696
1.716
1.706
1.686
1.701
1.73
1.74
1.74
1.74
1.75
1.745
1.725
1.735
1.764
1.779
1.774
1.769
1.779
1.779
1.75
1.74
1.755
1.764
1.755
1.75
1.755
1.769
1.76
1.755
1.779
1.799
1.799
1.789
1.794
1.808
1.808
1.779
1.779
1.799
1.804
1.794
1.784
1.784
1.789
1.764
1.755
1.779
1.794
1.789
1.789
1.799
1.808
1.799
1.784
1.799
1.813
1.804
1.799
1.799
1.823
1.818
1.799
1.804
1.818
1.818
1.804
1.794
1.799
1.799
1.774
1.76
1.769
1.769
1.76
1.74
1.73
1.725
1.706
1.691
1.701
1.711
1.691
1.672
1.672
1.686
1.691
1.667
1.667
1.686
1.686
1.676
1.672
1.686
1.696
1.672
1.662
1.676
1.681
1.676
1.667
1.676
1.691
1.676
1.652
1.667
1.681
1.676
1.662
1.662
1.681
1.676
1.652
1.652
1.672
1.676
1.667
1.657
1.667
1.672
1.652
1.647
1.667
1.681
1.672
1.662
1.672
1.691
1.686
1.672
1.686
1.696
1.681
1.657
1.642
1.652
1.652
1.628
1.628
1.652
1.662
1.667
1.672
1.691
1.706
1.686
1.681
1.696
1.701
1.686
1.676
1.681
1.701
1.681
1.662
1.672
1.691
1.691
1.681
1.681
1.691
1.686
1.657
1.662
1.681
1.691
1.681
1.681
1.691
1.701
1.681
1.681
1.706
1.72
1.711
1.696
1.696
1.706
1.686
1.667
1.676
1.691
1.686
1.672
1.672
1.681
1.676
1.647
1.652
1.672
1.681
1.676
1.676
1.696
1.72
1.706
1.701
1.711
1.72
1.711
1.706
1.711
1.73
1.716
1.701
1.716
1.73
1.725
1.711
1.701
1.706
1.696
1.667
1.657
1.672
1.672
1.662
1.657
1.672
1.686
1.672
1.662
1.681
1.691
1.681
1.672
1.681
1.696
1.672
1.637
1.637
1.647
1.642
1.632
1.637
1.652
1.652
1.632
1.647
1.676
1.681
1.667
1.652
1.662
1.676
1.662
1.657
1.676
1.681
1.672
1.662
1.662
1.672
1.662
1.647
1.662
1.686
1.681
1.667
1.672
1.691
1.686
1.662
1.662
1.681
1.681
1.667
1.662
1.681
1.701
1.696
1.706
1.745
1.774
1.784
1.774
1.76
1.74
1.691
1.642
1.618
1.603
1.569
1.535
1.515
1.525
1.525
1.51
1.52
1.554
1.569
1.574
1.588
1.628
1.662
1.662
1.662
1.691
1.706
1.706
1.696
1.706
1.72
1.711
1.691
1.701
1.716
1.701
1.681
1.676
1.691
1.686
1.662
1.672
1.701
1.72
1.73
1.74
1.76
1.764
1.74
1.72
1.725
1.73
1.72
1.711
1.72
1.74
1.73
1.711
1.73
1.75
1.745
1.73
1.72
1.735
1.735
1.716
1.72
1.74
1.745
1.735
1.73
1.745
1.76
1.745
1.735
1.75
1.755
1.745
1.735
1.735
1.755
1.745
1.72
1.725
1.74
1.735
1.73
1.745
1.769
1.779
1.764
1.774
1.799
1.799
1.784
1.769
1.769
1.779
1.764
1.764
1.789
1.813
1.818
1.818
1.828
1.843
1.828
1.804
1.813
1.828
1.823
1.808
1.808
1.823
1.823
1.789
1.774
1.789
1.794
1.784
1.779
1.789
1.804
1.789
1.784
1.794
1.804
1.789
1.774
1.769
1.769
1.745
1.72
1.735
1.75
1.745
1.735
1.73
1.745
1.745
1.711
1.706
1.72
1.716
1.691
1.681
1.686
1.691
1.667
1.657
1.676
1.696
1.696
1.686
1.681
1.686
1.672
1.652
1.667
1.681
1.676
1.667
1.667
1.681
1.686
1.662
1.657
1.662
1.657
1.647
1.647
1.657
1.667
1.647
1.637
1.657
1.667
1.657
1.642
1.652
1.672
1.667
1.647
1.662
1.681
1.686
1.681
1.681
1.696
1.696
1.667
1.662
1.681
1.681
1.652
1.628
1.632
1.647
1.637
1.637
1.667
1.691
1.691
1.696
1.706
1.72
1.706
1.676
1.681
1.696
1.696
1.686
1.681
1.686
1.681
1.657
1.662
1.681
1.681
1.672
1.667
1.676
1.686
1.667
1.652
1.667
1.681
1.676
1.676
1.691
1.711
1.701
1.686
1.691
1.701
1.691
1.676
1.672
1.691
1.696
1.672
1.681
1.701
1.706
1.691
1.676
1.676
1.686
1.672
1.667
1.686
1.711
1.716
1.725
1.74
1.76
1.74
1.711
1.711
1.72
1.706
1.686
1.686
1.696
1.696
1.667
1.662
1.686
1.691
1.681
1.662
1.672
1.672
1.642
1.623
1.637
1.647
1.642
1.632
1.642
1.662
1.657
1.642
1.657
1.672
1.662
1.647
1.637
1.652
1.657
1.642
1.642
1.667
1.676
1.672
1.662
1.672
1.686
1.667
1.652
1.662
1.667
1.652
1.637
1.637
1.642
1.632
1.613
1.628
1.647
1.657
1.657
1.662
1.681
1.686
1.657
1.642
1.642
1.637
1.628
1.623
1.642
1.667
1.672
1.691
1.725
1.755
1.76
1.755
1.755
1.76
1.725
1.686
1.667
1.662
1.632
1.598
1.564
1.554
1.54
1.5
1.496
1.52
1.535
1.53
1.535
1.554
1.584
1.584
1.593
1.628
1.657
1.662
1.662
1.672
1.686
1.681
1.667
1.681
1.701
1.706
1.696
1.696
1.711
1.716
1.686
1.676
1.691
1.696
1.686
1.686
1.706
1.725
1.716
1.711
1.72
1.725
1.711
1.701
1.696
1.706
1.701
1.681
1.701
1.725
1.725
1.725
1.725
1.74
1.745
1.72
1.716
1.725
1.72
1.706
1.696
1.701
1.711
1.691
1.691
1.72
1.74
1.73
1.72
1.725
1.74
1.73
1.711
1.716
1.725
1.73
1.735
1.745
1.769
1.779
1.76
1.76
1.784
1.789
1.779
1.764
1.76
1.76
1.735
1.725
1.745
1.769
1.774
1.779
1.794
1.818
1.808
1.784
1.789
1.799
1.794
1.784
1.779
1.789
1.789
1.769
1.774
1.789
1.779
1.764
1.745
1.745
1.755
1.735
1.73
1.755
1.774
1.769
1.769
1.774
1.789
1.779
1.75
1.75
1.76
1.75
1.74
1.73
1.735
1.73
1.701
1.696
1.711
1.716
1.701
1.691
1.696
1.706
1.676
1.652
1.667
1.676
1.667
1.652
1.662
1.676
1.667
1.632
1.637
1.652
1.652
1.642
1.637
1.652
1.657
1.628
1.623
1.642
1.647
1.637
1.632
1.647
1.662
1.647
1.642
1.662
1.676
1.667
1.647
1.647
1.667
1.662
1.647
1.657
1.676
1.676
1.662
1.657
1.672
1.676
1.642
1.637
1.657
1.667
1.662
1.657
1.667
1.681
1.662
1.647
1.657
1.667
1.657
1.642
1.637
1.647
1.647
1.632
1.647
1.672
1.672
1.662
1.662
1.676
1.681
1.657
1.662
1.676
1.681
1.672
1.662
1.676
1.686
1.672
1.662
1.681
1.686
1.672
1.662
1.667
1.681
1.672
1.647
1.657
1.676
1.681
1.676
1.676
1.686
1.691
1.667
1.667
1.681
1.672
1.652
1.637
1.642
1.642
1.623
1.613
1.637
1.662
1.662
1.662
1.672
1.696
1.691
1.672
1.686
1.701
1.691
1.676
1.676
1.691
1.691
1.667
1.667
1.691
1.701
1.696
1.691
1.706
1.72
1.701
1.681
1.691
1.696
1.676
1.662
1.657
1.672
1.657
1.632
1.637
1.652
1.647
1.642
1.637
1.652
1.652
1.623
1.623
1.647
1.652
1.637
1.628
1.637
1.652
1.637
1.628
1.642
1.647
1.637
1.628
1.632
1.647
1.637
1.613
1.618
1.642
1.642
1.637
1.632
1.647
1.652
1.628
1.628
1.652
1.667
1.662
1.657
1.667
1.681
1.667
1.652
1.667
1.672
1.657
1.637
1.637
1.652
1.652
1.637
1.662
1.696
1.711
1.711
1.706
1.725
1.73
1.701
1.691
1.701
1.691
1.667
1.642
1.623
1.598
1.544
1.5
1.491
1.491
1.481
1.476
1.486
1.52
1.53
1.535
1.569
1.613
1.632
1.642
1.657
1.686
1.706
1.691
1.696
1.711
1.701
1.681
1.667
1.676
1.691
1.681
1.676
1.701
1.72
1.716
1.711
1.711
1.72
1.701
1.667
1.672
1.691
1.691
1.686
1.691
1.711
1.716
1.691
1.686
1.711
1.72
1.72
1.716
1.725
1.735
1.716
1.701
1.716
1.725
1.716
1.696
1.696
1.716
1.716
1.706
1.72
1.745
1.745
1.73
1.725
1.735
1.74
1.711
1.711
1.735
1.745
1.74
1.735
1.74
1.755
1.735
1.72
1.74
1.75
1.74
1.735
1.74
1.764
1.764
1.74
1.745
1.769
1.779
1.774
1.779
1.789
1.789
1.76
1.76
1.774
1.769
1.755
1.75
1.769
1.789
1.779
1.779
1.799
1.813
1.804
1.789
1.784
1.794
1.789
1.774
1.784
1.799
1.794
1.784
1.774
1.779
1.779
1.745
1.73
1.75
1.76
1.755
1.74
1.73
1.73
1.706
1.681
1.681
1.686
1.676
1.676
1.686
1.716
1.711
1.686
1.691
1.701
1.696
1.681
1.667
1.667
1.657
1.628
1.632
1.652
1.657
1.647
1.637
1.647
1.667
1.657
1.642
1.652
1.657
1.647
1.637
1.637
1.652
1.647
1.628
1.637
1.657
1.657
1.647
1.642
1.652
1.657
1.632
1.628
1.647
1.657
1.652
1.642
1.657
1.676
1.657
1.637
1.642
1.647
1.637
1.628
1.632
1.647
1.647
1.632
1.652
1.681
1.681
1.667
1.652
1.657
1.652
1.628
1.632
1.657
1.672
1.672
1.667
1.672
1.681
1.667
1.647
1.657
1.662
1.652
1.647
1.657
1.672
1.672
1.652
1.657
1.672
1.672
1.657
1.657
1.672
1.681
1.667
1.662
1.672
1.667
1.647
1.632
1.632
1.637
1.623
1.618
1.642
1.667
1.672
1.672
1.676
1.691
1.681
1.642
1.637
1.647
1.647
1.642
1.647
1.667
1.686
1.672
1.672
1.696
1.701
1.686
1.667
1.662
1.662
1.647
1.637
1.662
1.681
1.691
1.696
1.706
1.72
1.716
1.681
1.676
1.686
1.676
1.657
1.642
1.652
1.657
1.632
1.628
1.647
1.657
1.647
1.642
1.652
1.667
1.647
1.628
1.637
1.647
1.642
1.632
1.632
1.647
1.642
1.628
1.637
1.657
1.652
1.642
1.632
1.642
1.647
1.623
1.618
1.628
1.632
1.623
1.613
1.623
1.642
1.628
1.618
1.637
1.662
1.662
1.657
1.657
1.672
1.662
1.637
1.632
1.642
1.632
1.623
1.613
1.637
1.642
1.628
1.632
1.662
1.676
1.676
1.672
1.691
1.716
1.711
1.706
1.73
1.755
1.75
1.73
1.706
1.691
1.657
1.603
1.569
1.554
1.535
1.505
1.491
1.496
1.5
1.486
1.491
1.525
1.549
1.564
1.579
1.603
1.632
1.642
1.647
1.662
1.672
1.662
1.652
1.662
1.681
1.681
1.662
1.667
1.691
1.696
1.691
1.691
1.701
1.706
1.681
1.676
1.701
1.711
1.706
1.696
1.706
1.725
1.706
1.691
1.701
1.716
1.711
1.696
1.686
1.696
1.691
1.676
1.691
1.716
1.716
1.701
1.701
1.716
1.725
1.701
1.691
1.716
1.725
1.725
1.72
1.725
1.74
1.725
1.711
1.725
1.73
1.716
1.706
1.706
1.72
1.72
1.696
1.711
1.74
1.755
1.755
1.76
1.769
1.774
1.75
1.745
1.764
1.774
1.764
1.76
1.764
1.779
1.769
1.755
1.774
1.794
1.794
1.784
1.789
1.804
1.799
1.774
1.779
1.794
1.794
1.779
1.774
1.784
1.794
1.769
1.76
1.774
1.774
1.764
1.75
1.755
1.769
1.75
1.74
1.755
1.774
1.764
1.75
1.75
1.764
1.76
1.735
1.74
1.75
1.735
1.716
1.706
1.711
1.711
1.681
1.672
1.686
1.696
1.686
1.681
1.686
1.701
1.681
1.657
1.657
1.662
1.647
1.628
1.623
1.637
1.632
1.613
1.628
1.657
1.662
1.662
1.662
1.672
1.672
1.632
1.613
1.623
1.623
1.613
1.608
1.623
1.642
1.637
1.628
1.652
1.672
1.667
1.652
1.647
1.657
1.657
1.632
1.642
1.667
1.672
1.667
1.662
1.672
1.672
1.652
1.642
1.657
1.657
1.642
1.632
1.642
1.662
1.652
1.647
1.657
1.667
1.657
1.642
1.642
1.652
1.647
1.623
1.628
1.652
1.667
1.662
1.647
1.652
1.657
1.632
1.623
1.642
1.652
1.647
1.647
1.662
1.676
1.662
1.647
1.662
1.672
1.667
1.657
1.657
1.681
1.691
1.662
1.662
1.672
1.667
1.652
1.647
1.667
1.686
1.672
1.676
1.696
1.701
1.686
1.676
1.681
1.691
1.676
1.662
1.686
1.716
1.711
1.691
1.676
1.672
1.652
1.623
1.628
1.652
1.657
1.652
1.647
1.662
1.667
1.642
1.632
1.637
1.637
1.623
1.613
1.628
1.642
1.637
1.623
1.642
1.657
1.657
1.647
1.642
1.652
1.642
1.618
1.623
1.637
1.637
1.628
1.623
1.637
1.647
1.623
1.613
1.632
1.642
1.637
1.618
1.613
1.623
1.603
1.588
1.608
1.628
1.628
1.628
1.637
1.662
1.667
1.647
1.642
1.647
1.637
1.632
1.628
1.642
1.652
1.637
1.647
1.681
1.701
1.711
1.711
1.73
1.75
1.735
1.706
1.701
1.696
1.667
1.623
1.588
1.574
1.54
1.496
1.481
1.491
1.486
1.481
1.476
1.5
1.52
1.52
1.53
1.569
1.598
1.613
1.628
1.657
1.686
1.676
1.667
1.686
1.701
1.691
1.672
1.662
1.672
1.667
1.647
1.657
1.691
1.696
1.691
1.691
1.706
1.72
1.701
1.691
1.706
1.716
1.711
1.706
1.72
1.73
1.711
1.686
1.696
1.711
1.701
1.691
1.691
1.706
1.706
1.686
1.701
1.716
1.706
1.681
1.672
1.686
1.701
1.681
1.676
1.696
1.711
1.72
1.72
1.73
1.74
1.72
1.696
1.711
1.73
1.73
1.725
1.73
1.75
1.755
1.73
1.73
1.755
1.76
1.755
1.745
1.76
1.769
1.75
1.745
1.769
1.779
1.774
1.769
1.774
1.784
1.779
1.764
1.779
1.789
1.769
1.755
1.76
1.774
1.769
1.745
1.745
1.76
1.764
1.764
1.76
1.769
1.779
1.755
1.745
1.76
1.774
1.764
1.75
1.755
1.764
1.75
1.735
1.745
1.76
1.75
1.735
1.725
1.725
1.716
1.686
1.686
1.701
1.696
1.681
1.672
1.676
1.681
1.652
1.647
1.657
1.652
1.628
1.613
1.618
1.632
1.618
1.603
1.623
1.647
1.647
1.647
1.652
1.667
1.657
1.628
1.632
1.652
1.657
1.652
1.652
1.667
1.672
1.647
1.632
1.647
1.652
1.637
1.632
1.642
1.662
1.652
1.637
1.647
1.667
1.662
1.647
1.637
1.652
1.652
1.628
1.632
1.657
1.662
1.652
1.647
1.647
1.642
1.603
1.588
1.608
1.618
1.613
1.603
1.618
1.647
1.652
1.642
1.657
1.672
1.667
1.657
1.657
1.672
1.676
1.662
1.667
1.681
1.686
1.672
1.667
1.681
1.686
1.662
1.652
1.667
1.681
1.676
1.672
1.676
1.691
1.676
1.657
1.667
1.686
1.691
1.686
1.686
1.701
1.706
1.686
1.691
1.701
1.681
1.657
1.642
1.652
1.662
1.637
1.632
1.657
1.672
1.667
1.657
1.662
1.667
1.642
1.613
1.623
1.637
1.637
1.632
1.632
1.652
1.647
1.628
1.632
1.647
1.642
1.623
1.613
1.618
1.623
1.598
1.598
1.618
1.632
1.632
1.628
1.637
1.652
1.642
1.623
1.637
1.652
1.642
1.628
1.628
1.637
1.632
1.603
1.598
1.613
1.623
1.618
1.623
1.637
1.657
1.642
1.642
1.662
1.672
1.667
1.667
1.676
1.701
1.696
1.686
1.706
1.725
1.716
1.701
1.696
1.701
1.681
1.637
1.618
1.598
1.564
1.525
1.491
1.486
1.476
1.442
1.437
1.471
1.5
1.515
1.53
1.559
1.598
1.608
1.613
1.647
1.672
1.681
1.676
1.676
1.691
1.686
1.662
1.667
1.691
1.701
1.691
1.686
1.701
1.711
1.691
1.686
1.696
1.691
1.676
1.657
1.662
1.676
1.672
1.667
1.686
1.711
1.716
1.711
1.716
1.73
1.725
1.686
1.676
1.696
1.706
1.701
1.691
1.701
1.706
1.681
1.672
1.691
1.706
1.701
1.696
1.716
1.74
1.735
1.72
1.735
1.74
1.73
1.716
1.711
1.73
1.735
1.725
1.74
1.769
1.774
1.755
1.74
1.74
1.745
1.72
1.711
1.735
1.755
1.76
1.764
1.774
1.794
1.784
1.764
1.769
1.769
1.75
1.735
1.735
1.755
1.76
1.75
1.764
1.794
1.808
1.799
1.794
1.794
1.794
1.76
1.75
1.764
1.774
1.769
1.769
1.779
1.789
1.769
1.735
1.74
1.75
1.745
1.735
1.73
1.74
1.74
1.72
1.716
1.73
1.73
1.716
1.711
1.72
1.73
1.706
1.686
1.691
1.686
1.672
1.652
1.652
1.662
1.647
1.632
1.642
1.657
1.657
1.647
1.642
1.652
1.652
1.628
1.628
1.647
1.647
1.628
1.618
1.623
1.628
1.608
1.598
1.623
1.632
1.632
1.628
1.637
1.657
1.647
1.628
1.642
1.662
1.662
1.652
1.647
1.657
1.652
1.623
1.628
1.647
1.647
1.642
1.642
1.657
1.672
1.652
1.647
1.662
1.676
1.667
1.652
1.652
1.662
1.647
1.632
1.652
1.667
1.657
1.647
1.652
1.676
1.681
1.657
1.657
1.681
1.681
1.662
1.662
1.676
1.696
1.672
1.657
1.672
1.686
1.686
1.681
1.691
1.711
1.696
1.681
1.691
1.706
1.696
1.686
1.681
1.696
1.706
1.681
1.686
1.696
1.686
1.667
1.652
1.652
1.647
1.623
1.618
1.637
1.657
1.662
1.657
1.662
1.676
1.667
1.647
1.652
1.667
1.657
1.642
1.637
1.652
1.647
1.623
1.618
1.632
1.632
1.628
1.623
1.632
1.642
1.623
1.618
1.637
1.647
1.637
1.628
1.632
1.652
1.642
1.628
1.642
1.652
1.642
1.628
1.623
1.642
1.647
1.628
1.628
1.647
1.657
1.647
1.637
1.642
1.652
1.642
1.647
1.676
1.701
1.711
1.716
1.73
1.75
1.735
1.716
1.72
1.725
1.706
1.667
1.632
1.613
1.574
1.52
1.496
1.491
1.481
1.466
1.461
1.486
1.515
1.515
1.53
1.574
1.613
1.637
1.652
1.676
1.696
1.676
1.647
1.657
1.672
1.672
1.662
1.662
1.686
1.691
1.676
1.681
1.696
1.691
1.676
1.667
1.681
1.701
1.691
1.691
1.711
1.72
1.716
1.706
1.706
1.716
1.706
1.686
1.701
1.725
1.725
1.72
1.725
1.74
1.74
1.716
1.711
1.73
1.735
1.725
1.725
1.73
1.74
1.72
1.706
1.72
1.725
1.716
1.701
1.706
1.725
1.725
1.716
1.73
1.74
1.735
1.73
1.73
1.74
1.74
1.72
1.73
1.76
1.764
1.755
1.75
1.76
1.769
1.75
1.74
1.76
1.774
1.774
1.774
1.789
1.813
1.804
1.789
1.799
1.818
1.813
1.804
1.794
1.804
1.804
1.774
1.774
1.789
1.784
1.774
1.769
1.784
1.794
1.774
1.764
1.774
1.784
1.774
1.764
1.76
1.769
1.76
1.745
1.755
1.764
1.75
1.735
1.725
1.725
1.716
1.681
1.681
1.701
1.711
1.706
1.711
1.716
1.725
1.701
1.686
1.696
1.701
1.681
1.667
1.662
1.676
1.662
1.637
1.647
1.667
1.662
1.657
1.657
1.672
1.676
1.642
1.642
1.662
1.662
1.647
1.637
1.652
1.662
1.647
1.637
1.662
1.676
1.662
1.652
1.662
1.681
1.662
1.632
1.637
1.657
1.657
1.652
1.657
1.672
1.681
1.667
1.672
1.691
1.696
1.686
1.676
1.686
1.691
1.667
1.657
1.672
1.686
1.686
1.676
1.681
1.696
1.691
1.667
1.676
1.686
1.672
1.657
1.652
1.672
1.676
1.662
1.672
1.701
1.72
1.72
1.72
1.735
1.745
1.725
1.711
1.716
1.711
1.696
1.686
1.696
1.716
1.711
1.691
1.701
1.711
1.701
1.681
1.667
1.672
1.667
1.637
1.642
1.667
1.672
1.667
1.657
1.662
1.672
1.647
1.628
1.642
1.652
1.642
1.618
1.613
1.628
1.623
1.608
1.623
1.647
1.652
1.647
1.652
1.672
1.676
1.657
1.652
1.667
1.667
1.662
1.662
1.672
1.676
1.647
1.632
1.642
1.642
1.632
1.623
1.628
1.647
1.642
1.628
1.647
1.672
1.676
1.667
1.667
1.681
1.681
1.657
1.662
1.686
1.696
1.691
1.691
1.706
1.72
1.711
1.701
1.716
1.716
1.691
1.662
1.632
1.608
1.559
1.505
1.486
1.486
1.476
1.466
1.476
1.51
1.54
1.544
1.564
1.613
1.642
1.652
1.657
1.676
1.701
1.686
1.676
1.701
1.716
1.711
1.701
1.706
1.72
1.706
1.672
1.676
1.691
1.686
1.672
1.672
1.696
1.711
1.701
1.711
1.735
1.745
1.74
1.74
1.74
1.745
1.711
1.686
1.691
1.696
1.691
1.676
1.686
1.711
1.716
1.706
1.72
1.74
1.735
1.72
1.716
1.725
1.725
1.701
1.706
1.73
1.74
1.735
1.73
1.74
1.75
1.735
1.725
1.74
1.755
1.75
1.745
1.745
1.76
1.75
1.735
1.745
1.769
1.769
1.76
1.755
1.764
1.764
1.74
1.74
1.764
1.774
1.769
1.774
1.789
1.808
1.789
1.779
1.794
1.804
1.794
1.784
1.784
1.799
1.794
1.769
1.774
1.784
1.774
1.76
1.755
1.769
1.774
1.755
1.76
1.784
1.794
1.784
1.779
1.789
1.794
1.769
1.745
1.755
1.755
1.74
1.72
1.72
1.73
1.716
1.691
1.701
1.725
1.725
1.711
1.696
1.696
1.686
1.647
1.632
1.642
1.642
1.628
1.628
1.652
1.672
1.657
1.642
1.662
1.672
1.662
1.647
1.642
1.652
1.642
1.613
1.623
1.647
1.647
1.642
1.637
1.657
1.667
1.647
1.652
1.676
1.681
1.672
1.662
1.672
1.681
1.667
1.652
1.667
1.672
1.662
1.647
1.652
1.667
1.662
1.642
1.652
1.672
1.676
1.672
1.667
1.686
1.686
1.652
1.642
1.647
1.642
1.623
1.618
1.632
1.652
1.642
1.642
1.672
1.701
1.706
1.701
1.696
1.711
1.706
1.686
1.696
1.716
1.711
1.696
1.691
1.706
1.711
1.686
1.681
1.701
1.706
1.691
1.676
1.676
1.681
1.652
1.632
1.642
1.652
1.647
1.642
1.647
1.667
1.662
1.642
1.642
1.652
1.642
1.623
1.618
1.632
1.637
1.613
1.618
1.637
1.642
1.637
1.637
1.647
1.662
1.647
1.632
1.647
1.657
1.652
1.642
1.642
1.647
1.632
1.608
1.618
1.637
1.642
1.637
1.637
1.657
1.662
1.637
1.632
1.647
1.652
1.637
1.628
1.637
1.652
1.642
1.642
1.662
1.686
1.686
1.681
1.686
1.696
1.696
1.676
1.691
1.706
1.691
1.667
1.652
1.652
1.637
1.579
1.54
1.53
1.515
1.5
1.491
1.5
1.51
1.496
1.496
1.53
1.564
1.579
1.588
1.613
1.647
1.662
1.657
1.676
1.696
1.696
1.681
1.676
1.691
1.701
1.681
1.681
1.701
1.706
1.691
1.681
1.691
1.701
1.691
1.676
1.696
1.711
1.696
1.676
1.672
1.686
1.681
1.657
1.662
1.681
1.691
1.691
1.696
1.716
1.72
1.691
1.681
1.701
1.716
1.706
1.696
1.701
1.716
1.701
1.696
1.716
1.735
1.725
1.711
1.711
1.725
1.72
1.706
1.716
1.74
1.74
1.735
1.735
1.75
1.755
1.73
1.73
1.745
1.75
1.74
1.735
1.75
1.76
1.725
1.706
1.72
1.745
1.745
1.74
1.745
1.76
1.745
1.725
1.74
1.76
1.755
1.75
1.755
1.774
1.789
1.779
1.789
1.808
1.813
1.794
1.774
1.774
1.779
1.76
1.735
1.745
1.755
1.75
1.745
1.75
1.769
1.764
1.745
1.75
1.764
1.755
1.74
1.73
1.735
1.73
1.696
1.681
1.686
1.681
1.662
1.652
1.657
1.672
1.662
1.652
1.672
1.696
1.691
1.672
1.652
1.657
1.642
1.618
1.618
1.637
1.637
1.637
1.642
1.662
1.662
1.637
1.632
1.647
1.652
1.637
1.628
1.642
1.657
1.642
1.632
1.647
1.667
1.662
1.642
1.642
1.662
1.657
1.632
1.642
1.657
1.652
1.642
1.642
1.657
1.667
1.647
1.647
1.672
1.681
1.667
1.657
1.657
1.657
1.632
1.618
1.637
1.657
1.652
1.652
1.667
1.691
1.696
1.672
1.676
1.691
1.681
1.667
1.662
1.676
1.681
1.657
1.662
1.691
1.711
1.711
1.706
1.711
1.72
1.701
1.681
1.691
1.706
1.696
1.686
1.696
1.716
1.711
1.691
1.701
1.72
1.711
1.686
1.667
1.672
1.672
1.642
1.637
1.642
1.637
1.632
1.628
1.637
1.657
1.642
1.623
1.642
1.662
1.662
1.652
1.652
1.672
1.662
1.632
1.632
1.642
1.637
1.628
1.623
1.642
1.647
1.628
1.623
1.642
1.652
1.642
1.632
1.637
1.652
1.632
1.618
1.637
1.657
1.652
1.632
1.623
1.632
1.623
1.598
1.613
1.637
1.642
1.637
1.642
1.657
1.667
1.647
1.642
1.657
1.667
1.667
1.672
1.686
1.706
1.696
1.691
1.711
1.73
1.725
1.706
1.696
1.696
1.672
1.623
1.603
1.588
1.554
1.52
1.496
1.5
1.5
1.476
1.476
1.51
1.53
1.54
1.554
1.588
1.623
1.632
1.637
1.667
1.686
1.686
1.676
1.676
1.686
1.676
1.652
1.657
1.672
1.681
1.686
1.696
1.72
1.735
1.72
1.716
1.73
1.73
1.711
1.691
1.686
1.691
1.672
1.652
1.672
1.691
1.691
1.681
1.676
1.691
1.696
1.676
1.686
1.701
1.701
1.686
1.686
1.696
1.711
1.696
1.701
1.73
1.745
1.735
1.725
1.725
1.735
1.716
1.701
1.716
1.725
1.72
1.716
1.73
1.755
1.745
1.706
1.706
1.725
1.73
1.725
1.716
1.725
1.73
1.711
1.711
1.735
1.755
1.755
1.755
1.764
1.779
1.769
1.755
1.769
1.784
1.774
1.764
1.774
1.799
1.799
1.779
1.779
1.794
1.789
1.769
1.75
1.755
1.76
1.73
1.725
1.745
1.755
1.76
1.755
1.75
1.755
1.73
1.711
1.725
1.74
1.74
1.725
1.716
1.73
1.725
1.701
1.701
1.716
1.711
1.696
1.691
1.701
1.711
1.691
1.686
1.696
1.696
1.676
1.662
1.662
1.676
1.662
1.647
1.662
1.672
1.667
1.652
1.647
1.657
1.647
1.623
1.628
1.637
1.632
1.623
1.618
1.628
1.632
1.613
1.618
1.642
1.652
1.642
1.637
1.642
1.662
1.652
1.642
1.657
1.667
1.662
1.652
1.657
1.667
1.657
1.628
1.632
1.652
1.657
1.652
1.657
1.672
1.681
1.667
1.662
1.681
1.691
1.676
1.667
1.672
1.681
1.662
1.642
1.662
1.676
1.681
1.672
1.667
1.662
1.642
1.603
1.608
1.632
1.637
1.632
1.637
1.672
1.696
1.691
1.696
1.716
1.716
1.706
1.696
1.706
1.72
1.701
1.681
1.696
1.711
1.706
1.701
1.706
1.72
1.716
1.691
1.701
1.711
1.706
1.691
1.672
1.672
1.672
1.647
1.642
1.652
1.647
1.628
1.618
1.628
1.642
1.628
1.628
1.647
1.676
1.681
1.672
1.667
1.676
1.667
1.637
1.637
1.652
1.647
1.637
1.637
1.652
1.657
1.632
1.628
1.647
1.657
1.647
1.642
1.652
1.672
1.662
1.647
1.647
1.642
1.623
1.603
1.593
1.608
1.608
1.593
1.613
1.647
1.667
1.676
1.681
1.696
1.691
1.657
1.647
1.667
1.672
1.667
1.667
1.686
1.711
1.706
1.701
1.725
1.74
1.735
1.72
1.716
1.72
1.696
1.647
1.628
1.618
1.588
1.549
1.525
1.525
1.51
1.471
1.457
1.486
1.51
1.53
1.549
1.584
1.623
1.642
1.652
1.676
1.691
1.681
1.662
1.657
1.667
1.667
1.657
1.681
1.711
1.72
1.711
1.711
1.725
1.735
1.716
1.706
1.72
1.725
1.711
1.701
1.706
1.72
1.706
1.691
1.706
1.725
1.72
1.716
1.72
1.735
1.73
1.701
1.701
1.716
1.711
1.706
1.701
1.72
1.73
1.711
1.701
1.72
1.73
1.725
1.716
1.72
1.735
1.72
1.711
1.73
1.75
1.75
1.745
1.74
1.755
1.745
1.72
1.73
1.755
1.764
1.764
1.76
1.779
1.784
1.764
1.755
1.769
1.774
1.76
1.75
1.76
1.774
1.764
1.75
1.769
1.784
1.779
1.769
1.774
1.789
1.789
1.769
1.774
1.789
1.789
1.779
1.769
1.779
1.784
1.764
1.764
1.784
1.794
1.789
1.784
1.789
1.794
1.769
1.74
1.745
1.755
1.745
1.735
1.735
1.755
1.75
1.725
1.735
1.75
1.74
1.72
1.706
1.711
1.716
1.686
1.676
1.691
1.696
1.681
1.672
1.667
1.672
1.642
1.618
1.632
1.647
1.647
1.642
1.647
1.672
1.681
1.662
1.667
1.681
1.672
1.652
1.642
1.642
1.647
1.623
1.628
1.657
1.672
1.662
1.647
1.657
1.672
1.662
1.647
1.657
1.672
1.672
1.667
1.672
1.686
1.681
1.657
1.657
1.667
1.667
1.657
1.652
1.667
1.681
1.662
1.657
1.676
1.681
1.667
1.652
1.662
1.672
1.652
1.632
1.652
1.667
1.652
1.632
1.632
1.647
1.647
1.628
1.647
1.676
1.686
1.681
1.681
1.701
1.711
1.686
1.676
1.691
1.691
1.676
1.662
1.667
1.681
1.667
1.652
1.667
1.681
1.676
1.662
1.657
1.672
1.662
1.632
1.642
1.667
1.676
1.672
1.667
1.676
1.681
1.652
1.647
1.662
1.672
1.672
1.672
1.672
1.667
1.647
1.618
1.628
1.642
1.642
1.642
1.662
1.696
1.706
1.686
1.691
1.706
1.701
1.681
1.672
1.681
1.686
1.672
1.672
1.701
1.716
1.711
1.706
1.706
1.711
1.681
1.652
1.657
1.667
1.657
1.642
1.642
1.662
1.662
1.647
1.652
1.667
1.667
1.652
1.642
1.647
1.652
1.628
1.623
1.632
1.632
1.618
1.613
1.623
1.647
1.632
1.613
1.628
1.637
1.632
1.623
1.623
1.632
1.623
1.603
1.618
1.647
1.652
1.647
1.647
1.662
1.672
1.652
1.642
1.657
1.662
1.647
1.632
1.642
1.652
1.642
1.628
1.647
1.657
1.652
1.642
1.642
1.657
1.642
1.608
1.608
1.637
1.652
1.662
1.672
1.696
1.711
1.691
1.691
1.711
1.711
1.691
1.667
1.662
1.657
1.623
1.579
1.559
1.544
1.505
1.471
1.457
1.466
1.476
1.476
1.505
1.554
1.588
1.603
1.623
1.647
1.672
1.657
1.662
1.686
1.691
1.681
1.667
1.667
1.676
1.662
1.647
1.662
1.681
1.667
1.652
1.657
1.686
1.701
1.691
1.701
1.716
1.706
1.696
1.686
1.696
1.701
1.676
1.672
1.701
1.72
1.725
1.725
1.73
1.74
1.716
1.696
1.706
1.716
1.711
1.701
1.706
1.72
1.725
1.701
1.711
1.73
1.735
1.73
1.725
1.74
1.745
1.72
1.716
1.735
1.745
1.735
1.725
1.735
1.75
1.74
1.72
1.725
1.735
1.716
1.701
1.706
1.725
1.73
1.716
1.73
1.76
1.774
1.774
1.769
1.779
1.784
1.76
1.764
1.789
1.804
1.804
1.799
1.808
1.823
1.808
1.789
1.794
1.808
1.794
1.779
1.779
1.789
1.784
1.755
1.755
1.764
1.764
1.76
1.76
1.774
1.784
1.76
1.745
1.755
1.76
1.745
1.735
1.74
1.75
1.735
1.716
1.72
1.716
1.691
1.667
1.652
1.662
1.657
1.637
1.652
1.681
1.696
1.691
1.691
1.701
1.706
1.676
1.667
1.681
1.691
1.681
1.667
1.672
1.681
1.662
1.642
1.652
1.667
1.662
1.647
1.647
1.657
1.657
1.632
1.637
1.662
1.662
1.652
1.647
1.657
1.662
1.637
1.632
1.647
1.657
1.657
1.652
1.662
1.681
1.667
1.642
1.647
1.662
1.652
1.637
1.637
1.652
1.652
1.628
1.632
1.662
1.672
1.667
1.667
1.681
1.691
1.672
1.672
1.691
1.696
1.676
1.657
1.657
1.676
1.667
1.647
1.662
1.681
1.686
1.681
1.686
1.701
1.701
1.672
1.676
1.691
1.681
1.667
1.657
1.667
1.676
1.647
1.642
1.662
1.676
1.667
1.662
1.667
1.676
1.657
1.642
1.662
1.686
1.676
1.667
1.662
1.676
1.681
1.667
1.672
1.681
1.681
1.672
1.667
1.676
1.676
1.652
1.652
1.681
1.696
1.686
1.681
1.691
1.711
1.696
1.672
1.676
1.691
1.686
1.676
1.676
1.696
1.696
1.672
1.676
1.691
1.696
1.691
1.681
1.696
1.706
1.686
1.681
1.696
1.696
1.686
1.676
1.686
1.696
1.676
1.657
1.676
1.701
1.706
1.701
1.711
1.725
1.716
1.676
1.672
1.686
1.681
1.667
1.652
1.662
1.667
1.652
1.652
1.676
1.681
1.662
1.642
1.647
1.667
1.662
1.652
1.672
1.696
1.681
1.657
1.642
1.657
1.657
1.637
1.642
1.662
1.672
1.676
1.691
1.711
1.725
1.701
1.686
1.696
1.696
1.681
1.672
1.676
1.681
1.667
1.647
1.657
1.672
1.676
1.672
1.676
1.691
1.691
1.662
1.662
1.676
1.672
1.667
1.667
1.696
1.711
1.681
1.667
1.691
1.711
1.716
1.716
1.73
1.76
1.76
1.755
1.769
1.774
1.755
1.72
1.676
1.642
1.598
1.54
1.525
1.525
1.51
1.496
1.5
1.53
1.569
1.574
1.593
1.632
1.667
1.681
1.691
1.711
1.735
1.725
1.711
1.716
1.725
1.716
1.706
1.706
1.72
1.72
1.701
1.711
1.735
1.745
1.74
1.72
1.711
1.706
1.681
1.686
1.711
1.735
1.74
1.75
1.769
1.779
1.76
1.73
1.735
1.74
1.73
1.716
1.725
1.76
1.779
1.769
1.779
1.784
1.774
1.76
1.745
1.755
1.76
1.735
1.725
1.745
1.755
1.75
1.735
1.74
1.76
1.755
1.745
1.769
1.794
1.794
1.779
1.769
1.774
1.774
1.745
1.75
1.769
1.779
1.779
1.784
1.804
1.813
1.794
1.784
1.804
1.813
1.808
1.804
1.813
1.833
1.818
1.799
1.818
1.838
1.838
1.828
1.833
1.848
1.852
1.828
1.833
1.848
1.843
1.828
1.818
1.828
1.838
1.818
1.808
1.813
1.808
1.794
1.784
1.789
1.789
1.755
1.725
1.735
1.745
1.735
1.725
1.725
1.74
1.74
1.72
1.73
1.755
1.75
1.735
1.72
1.72
1.72
1.696
1.681
1.686
1.676
1.642
1.618
1.608
1.608
1.588
1.579
1.603
1.628
1.642
1.657
1.672
1.686
1.672
1.637
1.632
1.647
1.647
1.642
1.642
1.657
1.672
1.657
1.657
1.672
1.672
1.657
1.637
1.628
1.632
1.618
1.598
1.608
1.618
1.603
1.588
1.584
1.593
1.588
1.559
1.559
1.579
1.579
1.569
1.559
1.569
1.584
1.564
1.569
1.603
1.628
1.637
1.647
1.676
1.711
1.701
1.681
1.681
1.676
1.657
1.632
1.623
1.632
1.632
1.603
1.603
1.618
1.618
1.603
1.588
1.593
1.593
1.569
1.569
1.593
1.608
1.608
1.603
1.618
1.632
1.618
1.593
1.608
1.623
1.613
1.588
1.579
1.593
1.608
1.598
1.618
1.652
1.652
1.647
1.642
1.662
1.672
1.647
1.632
1.642
1.642
1.628
1.613
1.623
1.642
1.632
1.623
1.647
1.676
1.686
1.696
1.706
1.725
1.72
1.691
1.691
1.716
1.725
1.72
1.72
1.74
1.755
1.735
1.73
1.745
1.75
1.74
1.73
1.725
1.735
1.711
1.691
1.691
1.696
1.686
1.667
1.657
1.676
1.676
1.657
1.662
1.676
1.681
1.681
1.686
1.706
1.72
1.701
1.696
1.72
1.735
1.735
1.725
1.711
1.696
1.662
1.632
1.637
1.657
1.657
1.652
1.662
1.696
1.711
1.701
1.711
1.73
1.725
1.706
1.696
1.701
1.706
1.686
1.681
1.701
1.706
1.691
1.681
1.686
1.706
1.691
1.681
1.706
1.74
1.75
1.745
1.755
1.779
1.784
1.769
1.779
1.789
1.784
1.774
1.774
1.784
1.779
1.74
1.711
1.701
1.672
1.618
1.559
1.53
1.515
1.486
1.471
1.5
1.535
1.554
1.569
1.593
1.632
1.657
1.647
1.662
1.686
1.696
1.691
1.696
1.72
1.73
1.711
1.711
1.74
1.755
1.755
1.75
1.76
1.774
1.755
1.74
1.755
1.779
1.779
1.769
1.769
1.789
1.789
1.764
1.764
1.784
1.779
1.764
1.755
1.769
1.779
1.76
1.745
1.755
1.76
1.745
1.735
1.745
1.76
1.75
1.735
1.75
1.769
1.769
1.764
1.764
1.774
1.774
1.75
1.755
1.774
1.774
1.76
1.75
1.76
1.764
1.74
1.725
1.74
1.75
1.75
1.75
1.764
1.794
1.794
1.789
1.808
1.833
1.828
1.813
1.804
1.818
1.813
1.784
1.784
1.799
1.799
1.794
1.789
1.799
1.808
1.784
1.774
1.799
1.813
1.799
1.779
1.769
1.774
1.76
1.74
1.755
1.774
1.769
1.769
1.779
1.794
1.779
1.745
1.735
1.74
1.73
1.716
1.711
1.735
1.755
1.745
1.745
1.76
1.764
1.75
1.725
1.716
1.711
1.691
1.667
1.676
1.686
1.676
1.657
1.652
1.662
1.662
1.642
1.647
1.672
1.672
1.657
1.647
1.657
1.657
1.613
1.584
1.584
1.584
1.579
1.574
1.588
1.618
1.623
1.623
1.652
1.681
1.672
1.642
1.618
1.613
1.598
1.564
1.564
1.584
1.593
1.593
1.598
1.618
1.637
1.613
1.613
1.632
1.642
1.632
1.623
1.628
1.642
1.628
1.603
1.613
1.628
1.623
1.613
1.618
1.642
1.642
1.613
1.598
1.603
1.598
1.588
1.588
1.603
1.608
1.593
1.603
1.628
1.628
1.608
1.588
1.588
1.603
1.593
1.579
1.603
1.632
1.647
1.652
1.657
1.667
1.662
1.628
1.623
1.637
1.632
1.623
1.623
1.642
1.662
1.642
1.632
1.647
1.652
1.647
1.642
1.647
1.662
1.652
1.637
1.657
1.676
1.676
1.662
1.652
1.652
1.647
1.618
1.623
1.642
1.637
1.628
1.618
1.628
1.637
1.613
1.593
1.598
1.588
1.579
1.574
1.588
1.613
1.603
1.588
1.603
1.623
1.623
1.613
1.613
1.628
1.632
1.618
1.628
1.647
1.652
1.637
1.632
1.642
1.647
1.623
1.618
1.637
1.647
1.632
1.623
1.623
1.632
1.618
1.593
1.608
1.623
1.618
1.608
1.603
1.623
1.623
1.608
1.618
1.647
1.657
1.652
1.642
1.657
1.672
1.662
1.662
1.691
1.706
1.706
1.701
1.706
1.716
1.701
1.667
1.662
1.652
1.623
1.588
1.564
1.554
1.53
1.486
1.481
1.491
1.496
1.496
1.5
1.53
1.554
1.544
1.554
1.593
1.623
1.632
1.637
1.662
1.686
1.672
1.642
1.652
1.667
1.667
1.667
1.681
1.711
1.72
1.706
1.711
1.725
1.711
1.681
1.652
1.657
1.662
1.642
1.642
1.676
1.701
1.711
1.716
1.725
1.74
1.725
1.706
1.72
1.73
1.72
1.701
1.696
1.711
1.706
1.686
1.701
1.73
1.74
1.735
1.73
1.745
1.75
1.72
1.706
1.716
1.72
1.711
1.701
1.706
1.725
1.72
1.711
1.73
1.75
1.755
1.755
1.755
1.764
1.76
1.735
1.745
1.769
1.764
1.755
1.75
1.769
1.784
1.76
1.75
1.769
1.779
1.779
1.779
1.799
1.823
1.813
1.799
1.813
1.818
1.804
1.784
1.774
1.784
1.784
1.76
1.769
1.789
1.789
1.779
1.774
1.784
1.789
1.764
1.755
1.769
1.779
1.774
1.755
1.745
1.745
1.725
1.701
1.711
1.725
1.72
1.711
1.716
1.73
1.72
1.686
1.686
1.701
1.701
1.686
1.672
1.681
1.686
1.667
1.657
1.676
1.681
1.672
1.657
1.667
1.681
1.667
1.647
1.652
1.657
1.647
1.632
1.632
1.647
1.647
1.623
1.628
1.642
1.647
1.637
1.628
1.642
1.657
1.642
1.637
1.652
1.662
1.647
1.632
1.623
1.628
1.623
1.618
1.642
1.672
1.672
1.672
1.676
1.691
1.691
1.662
1.662
1.676
1.686
1.681
1.672
1.672
1.672
1.642
1.623
1.632
1.632
1.628
1.637
1.667
1.696
1.691
1.667
1.672
1.676
1.667
1.652
1.652
1.672
1.681
1.672
1.686
1.716
1.716
1.701
1.691
1.701
1.706
1.676
1.662
1.676
1.686
1.676
1.672
1.681
1.701
1.696
1.681
1.696
1.701
1.681
1.662
1.657
1.667
1.667
1.642
1.637
1.652
1.652
1.647
1.637
1.647
1.657
1.632
1.632
1.647
1.657
1.642
1.628
1.628
1.637
1.628
1.613
1.623
1.642
1.632
1.623
1.628
1.642
1.642
1.623
1.632
1.662
1.667
1.657
1.647
1.652
1.662
1.637
1.628
1.637
1.628
1.608
1.593
1.593
1.608
1.598
1.593
1.623
1.652
1.662
1.667
1.672
1.696
1.701
1.681
1.686
1.706
1.711
1.701
1.696
1.701
1.696
1.657
1.628
1.623
1.598
1.564
1.53
1.515
1.51
1.486
1.461
1.476
1.496
1.505
1.52
1.549
1.588
1.608
1.608
1.637
1.667
1.676
1.672
1.667
1.667
1.667
1.637
1.628
1.647
1.662
1.657
1.657
1.676
1.701
1.696
1.686
1.701
1.716
1.711
1.701
1.701
1.711
1.706
1.676
1.686
1.711
1.716
1.711
1.706
1.716
1.72
1.691
1.681
1.701
1.706
1.691
1.686
1.701
1.725
1.701
1.676
1.676
1.672
1.662
1.657
1.662
1.686
1.701
1.701
1.735
1.779
1.794
1.789
1.779
1.779
1.774
1.745
1.73
1.745
1.755
1.745
1.735
1.74
1.75
1.74
1.72
1.735
1.755
1.755
1.75
1.755
1.779
1.784
1.76
1.764
1.779
1.774
1.76
1.755
1.764
1.779
1.76
1.76
1.784
1.794
1.784
1.769
1.774
1.784
1.774
1.75
1.745
1.745
1.735
1.73
1.735
1.755
1.755
1.73
1.735
1.75
1.74
1.725
1.716
1.725
1.73
1.706
1.711
1.74
1.76
1.755
1.74
1.735
1.73
1.701
1.667
1.676
1.691
1.686
1.676
1.672
1.686
1.686
1.672
1.672
1.676
1.667
1.647
1.637
1.647
1.652
1.628
1.628
1.647
1.657
1.647
1.637
1.647
1.657
1.647
1.632
1.657
1.662
1.652
1.642
1.647
1.667
1.667
1.642
1.642
1.672
1.676
1.681
1.681
1.691
1.701
1.676
1.667
1.686
1.701
1.696
1.691
1.701
1.716
1.706
1.691
1.706
1.72
1.716
1.696
1.691
1.701
1.706
1.696
1.711
1.74
1.755
1.76
1.764
1.784
1.804
1.784
1.774
1.774
1.76
1.745
1.735
1.755
1.784
1.784
1.784
1.818
1.852
1.857
1.848
1.848
1.867
1.872
1.857
1.867
1.887
1.891
1.882
1.877
1.882
1.882
1.852
1.848
1.862
1.872
1.867
1.862
1.857
1.862
1.848
1.823
1.828
1.828
1.813
1.794
1.789
1.804
1.804
1.784
1.789
1.794
1.789
1.779
1.774
1.779
1.784
1.755
1.745
1.764
1.774
1.769
1.76
1.755
1.76
1.74
1.716
1.725
1.74
1.735
1.73
1.73
1.75
1.745
1.725
1.73
1.75
1.745
1.711
1.686
1.691
1.701
1.681
1.681
1.701
1.716
1.716
1.725
1.745
1.76
1.745
1.725
1.735
1.75
1.745
1.74
1.745
1.764
1.764
1.73
1.72
1.716
1.686
1.647
1.608
1.593
1.574
1.53
1.515
1.525
1.535
1.535
1.535
1.559
1.593
1.608
1.613
1.652
1.691
1.696
1.696
1.701
1.716
1.716
1.701
1.711
1.73
1.725
1.716
1.711
1.725
1.73
1.701
1.691
1.711
1.716
1.706
1.706
1.716
1.735
1.716
1.696
1.706
1.725
1.72
1.706
1.701
1.711
1.701
1.672
1.672
1.691
1.696
1.701
1.701
1.716
1.725
1.706
1.701
1.711
1.716
1.706
1.696
1.691
1.686
1.662
1.637
1.652
1.667
1.667
1.662
1.676
1.701
1.716
1.706
1.72
1.74
1.73
1.706
1.686
1.691
1.701
1.681
1.686
1.706
1.72
1.72
1.716
1.73
1.745
1.73
1.711
1.72
1.735
1.73
1.72
1.72
1.74
1.74
1.716
1.72
1.735
1.73
1.72
1.711
1.725
1.735
1.716
1.711
1.725
1.735
1.725
1.711
1.711
1.725
1.711
1.696
1.701
1.706
1.701
1.691
1.696
1.716
1.711
1.681
1.681
1.701
1.701
1.691
1.681
1.681
1.672
1.647
1.637
1.647
1.657
1.642
1.632
1.628
1.637
1.618
1.603
1.623
1.637
1.632
1.618
1.618
1.637
1.628
1.603
1.608
1.623
1.618
1.608
1.598
1.608
1.613
1.588
1.584
1.603
1.603
1.579
1.564
1.564
1.579
1.569
1.554
1.574
1.598
1.608
1.613
1.623
1.642
1.632
1.608
1.608
1.618
1.618
1.603
1.593
1.598
1.603
1.579
1.579
1.598
1.613
1.618
1.613
1.623
1.637
1.613
1.588
1.598
1.603
1.593
1.579
1.584
1.608
1.618
1.598
1.608
1.628
1.628
1.618
1.608
1.618
1.623
1.603
1.603
1.628
1.632
1.623
1.613
1.623
1.637
1.623
1.603
1.608
1.613
1.608
1.593
1.598
1.613
1.618
1.603
1.613
1.628
1.623
1.613
1.608
1.632
1.642
1.623
1.613
1.637
1.652
1.652
1.637
1.637
1.647
1.632
1.623
1.642
1.657
1.657
1.652
1.652
1.657
1.642
1.618
1.618
1.628
1.623
1.608
1.603
1.613
1.623
1.598
1.593
1.613
1.618
1.608
1.598
1.608
1.623
1.603
1.593
1.603
1.613
1.603
1.593
1.588
1.598
1.593
1.569
1.579
1.603
1.603
1.598
1.598
1.618
1.632
1.618
1.613
1.623
1.628
1.613
1.603
1.608
1.618
1.603
1.588
1.608
1.628
1.623
1.613
1.618
1.632
1.632
1.618
1.628
1.647
1.652
1.652
1.662
1.696
1.716
1.706
1.701
1.72
1.725
1.711
1.681
1.662
1.642
1.593
1.549
1.53
1.51
1.481
1.452
1.437
1.442
1.432
1.422
1.452
1.491
1.52
1.535
1.559
1.598
1.632
1.632
1.652
1.696
1.711
1.701
1.681
1.686
1.696
1.676
1.662
1.672
1.691
1.686
1.686
1.696
1.711
1.701
1.681
1.681
1.691
1.681
1.662
1.652
1.667
1.672
1.652
1.657
1.686
1.706
1.701
1.701
1.711
1.725
1.706
1.676
1.676
1.686
1.681
1.676
1.681
1.706
1.701
1.676
1.686
1.706
1.706
1.701
1.701
1.72
1.74
1.725
1.725
1.75
1.75
1.735
1.72
1.716
1.725
1.716
1.706
1.73
1.745
1.735
1.725
1.72
1.735
1.725
1.696
1.696
1.72
1.73
1.725
1.73
1.75
1.76
1.74
1.745
1.764
1.779
1.769
1.755
1.75
1.76
1.745
1.73
1.745
1.764
1.764
1.76
1.76
1.774
1.769
1.735
1.73
1.74
1.735
1.72
1.72
1.74
1.755
1.735
1.74
1.76
1.764
1.75
1.735
1.74
1.75
1.725
1.706
1.706
1.711
1.691
1.681
1.681
1.691
1.681
1.647
1.642
1.652
1.647
1.632
1.618
1.628
1.628
1.608
1.613
1.642
1.657
1.652
1.642
1.647
1.662
1.652
1.647
1.667
1.686
1.676
1.662
1.657
1.667
1.657
1.628
1.632
1.647
1.647
1.637
1.632
1.647
1.652
1.632
1.628
1.647
1.652
1.642
1.637
1.652
1.667
1.647
1.632
1.647
1.662
1.647
1.628
1.623
1.642
1.637
1.613
1.628
1.652
1.657
1.647
1.642
1.662
1.667
1.642
1.647
1.672
1.676
1.672
1.667
1.672
1.676
1.652
1.632
1.642
1.652
1.652
1.647
1.652
1.672
1.672
1.652
1.657
1.676
1.672
1.662
1.652
1.657
1.652
1.628
1.623
1.647
1.657
1.652
1.642
1.662
1.681
1.657
1.637
1.647
1.657
1.647
1.632
1.637
1.662
1.672
1.652
1.662
1.681
1.681
1.667
1.657
1.662
1.672
1.652
1.647
1.672
1.681
1.672
1.662
1.662
1.676
1.662
1.647
1.662
1.676
1.657
1.637
1.642
1.667
1.672
1.662
1.681
1.711
1.72
1.716
1.711
1.72
1.72
1.691
1.686
1.701
1.711
1.711
1.711
1.725
1.74
1.716
1.681
1.672
1.667
1.647
1.628
1.623
1.642
1.647
1.632
1.652
1.681
1.691
1.676
1.672
1.676
1.676
1.652
1.647
1.672
1.686
1.686
1.681
1.686
1.696
1.676
1.647
1.637
1.632
1.613
1.598
1.603
1.623
1.632
1.628
1.662
1.701
1.706
1.691
1.672
1.672
1.662
1.618
1.598
1.618
1.632
1.632
1.637
1.657
1.681
1.672
1.657
1.667
1.672
1.662
1.657
1.657
1.686
1.696
1.691
1.716
1.745
1.75
1.745
1.745
1.76
1.75
1.706
1.667
1.652
1.623
1.584
1.54
1.515
1.5
1.461
1.432
1.442
1.461
1.466
1.466
1.491
1.54
1.564
1.574
1.608
1.647
1.672
1.676
1.681
1.706
1.72
1.696
1.686
1.701
1.701
1.691
1.681
1.691
1.701
1.691
1.681
1.706
1.73
1.73
1.72
1.72
1.735
1.735
1.711
1.711
1.716
1.711
1.696
1.691
1.711
1.725
1.711
1.72
1.75
1.764
1.75
1.73
1.72
1.725
1.706
1.696
1.706
1.72
1.716
1.716
1.725
1.75
1.745
1.711
1.701
1.716
1.716
1.711
1.711
1.73
1.74
1.72
1.725
1.75
1.76
1.755
1.74
1.75
1.764
1.745
1.72
1.725
1.735
1.73
1.72
1.725
1.74
1.745
1.73
1.755
1.779
1.784
1.769
1.76
1.769
1.774
1.75
1.75
1.764
1.769
1.76
1.75
1.76
1.774
1.764
1.745
1.76
1.774
1.769
1.76
1.76
1.774
1.769
1.745
1.755
1.774
1.774
1.76
1.75
1.76
1.76
1.74
1.725
1.735
1.73
1.711
1.696
1.691
1.701
1.676
1.662
1.676
1.696
1.691
1.681
1.676
1.681
1.672
1.647
1.657
1.667
1.657
1.642
1.642
1.657
1.657
1.628
1.623
1.642
1.657
1.647
1.637
1.642
1.657
1.637
1.623
1.642
1.662
1.662
1.657
1.662
1.686
1.686
1.672
1.676
1.686
1.667
1.632
1.608
1.603
1.603
1.579
1.584
1.613
1.642
1.657
1.667
1.686
1.706
1.681
1.662
1.667
1.667
1.657
1.637
1.632
1.652
1.647
1.632
1.647
1.672
1.676
1.672
1.667
1.676
1.672
1.642
1.637
1.662
1.672
1.672
1.676
1.696
1.711
1.701
1.681
1.691
1.691
1.676
1.667
1.667
1.681
1.672
1.647
1.647
1.662
1.657
1.647
1.642
1.662
1.676
1.662
1.667
1.686
1.696
1.681
1.667
1.672
1.676
1.657
1.642
1.657
1.672
1.672
1.662
1.662
1.667
1.647
1.618
1.632
1.652
1.652
1.647
1.652
1.676
1.681
1.662
1.662
1.681
1.681
1.672
1.667
1.681
1.696
1.676
1.657
1.676
1.691
1.681
1.672
1.672
1.686
1.696
1.686
1.706
1.725
1.72
1.711
1.701
1.711
1.711
1.676
1.667
1.667
1.657
1.632
1.618
1.618
1.632
1.623
1.618
1.637
1.657
1.652
1.642
1.642
1.647
1.642
1.623
1.637
1.662
1.667
1.662
1.662
1.672
1.667
1.632
1.623
1.632
1.632
1.623
1.613
1.623
1.632
1.618
1.608
1.632
1.652
1.657
1.647
1.652
1.667
1.662
1.632
1.637
1.647
1.642
1.628
1.628
1.642
1.652
1.642
1.652
1.672
1.676
1.667
1.667
1.676
1.686
1.676
1.672
1.701
1.735
1.745
1.75
1.755
1.769
1.745
1.681
1.642
1.608
1.559
1.5
1.461
1.457
1.457
1.437
1.442
1.471
1.491
1.496
1.505
1.54
1.564
1.559
1.564
1.603
1.642
1.662
1.672
1.681
1.706
1.701
1.681
1.691
1.711
1.706
1.691
1.686
1.701
1.711
1.691
1.691
1.711
1.716
1.706
1.696
1.711
1.725
1.711
1.701
1.72
1.73
1.73
1.716
1.711
1.725
1.716
1.691
1.701
1.72
1.725
1.72
1.72
1.74
1.755
1.735
1.735
1.75
1.75
1.74
1.73
1.73
1.735
1.72
1.711
1.725
1.74
1.735
1.735
1.745
1.764
1.76
1.74
1.745
1.764
1.76
1.745
1.745
1.76
1.769
1.75
1.76
1.784
1.789
1.774
1.755
1.755
1.764
1.755
1.74
1.76
1.779
1.779
1.779
1.789
1.808
1.799
1.779
1.789
1.804
1.804
1.794
1.789
1.799
1.799
1.774
1.769
1.789
1.794
1.789
1.784
1.794
1.804
1.784
1.764
1.769
1.769
1.75
1.735
1.74
1.755
1.745
1.72
1.735
1.755
1.75
1.735
1.72
1.716
1.706
1.676
1.672
1.686
1.696
1.691
1.691
1.701
1.711
1.691
1.667
1.676
1.681
1.672
1.662
1.667
1.681
1.676
1.652
1.657
1.681
1.676
1.662
1.647
1.657
1.662
1.642
1.642
1.662
1.667
1.652
1.642
1.652
1.672
1.662
1.647
1.667
1.686
1.691
1.691
1.691
1.701
1.676
1.642
1.642
1.657
1.647
1.642
1.652
1.681
1.696
1.681
1.676
1.691
1.691
1.676
1.667
1.672
1.686
1.667
1.652
1.667
1.672
1.657
1.637
1.642
1.662
1.662
1.647
1.662
1.681
1.681
1.676
1.672
1.676
1.676
1.657
1.652
1.676
1.686
1.681
1.672
1.676
1.696
1.691
1.686
1.701
1.711
1.701
1.686
1.686
1.691
1.676
1.642
1.652
1.667
1.662
1.647
1.637
1.647
1.652
1.632
1.642
1.672
1.686
1.681
1.672
1.676
1.681
1.647
1.623
1.628
1.637
1.632
1.632
1.647
1.676
1.681
1.667
1.672
1.681
1.672
1.662
1.652
1.657
1.657
1.632
1.642
1.667
1.672
1.667
1.662
1.676
1.696
1.681
1.676
1.696
1.711
1.701
1.691
1.696
1.706
1.691
1.662
1.662
1.676
1.676
1.662
1.652
1.657
1.657
1.632
1.637
1.657
1.662
1.652
1.647
1.662
1.676
1.657
1.637
1.642
1.647
1.637
1.623
1.613
1.613
1.598
1.579
1.588
1.608
1.608
1.603
1.608
1.632
1.642
1.628
1.632
1.667
1.681
1.672
1.657
1.657
1.662
1.637
1.623
1.637
1.652
1.637
1.628
1.632
1.652
1.647
1.628
1.637
1.657
1.662
1.667
1.676
1.696
1.696
1.676
1.672
1.691
1.696
1.696
1.701
1.72
1.745
1.73
1.711
1.701
1.676
1.628
1.574
1.54
1.52
1.491
1.452
1.452
1.476
1.481
1.481
1.491
1.515
1.54
1.54
1.559
1.593
1.628
1.637
1.647
1.672
1.691
1.681
1.667
1.681
1.691
1.691
1.681
1.686
1.701
1.696
1.681
1.706
1.725
1.72
1.701
1.686
1.696
1.696
1.681
1.686
1.716
1.73
1.73
1.735
1.75
1.764
1.74
1.711
1.711
1.72
1.711
1.701
1.706
1.72
1.711
1.686
1.696
1.716
1.716
1.706
1.701
1.72
1.73
1.716
1.73
1.755
1.76
1.75
1.74
1.745
1.75
1.72
1.706
1.716
1.73
1.725
1.716
1.725
1.745
1.74
1.725
1.74
1.764
1.774
1.764
1.764
1.784
1.794
1.774
1.779
1.804
1.808
1.789
1.774
1.769
1.774
1.745
1.73
1.75
1.764
1.764
1.769
1.784
1.813
1.813
1.794
1.799
1.808
1.799
1.779
1.755
1.755
1.755
1.73
1.73
1.75
1.755
1.745
1.74
1.755
1.764
1.735
1.711
1.716
1.72
1.716
1.711
1.72
1.735
1.725
1.711
1.72
1.73
1.72
1.706
1.696
1.711
1.711
1.686
1.676
1.691
1.686
1.676
1.667
1.672
1.681
1.657
1.647
1.657
1.662
1.642
1.628
1.623
1.632
1.628
1.608
1.618
1.637
1.642
1.642
1.652
1.676
1.691
1.672
1.681
1.706
1.711
1.701
1.691
1.696
1.696
1.672
1.657
1.667
1.672
1.657
1.642
1.652
1.672
1.672
1.667
1.691
1.716
1.711
1.696
1.686
1.686
1.681
1.642
1.637
1.662
1.676
1.676
1.676
1.691
1.706
1.696
1.681
1.696
1.701
1.676
1.652
1.647
1.652
1.647
1.628
1.647
1.676
1.681
1.686
1.691
1.716
1.73
1.706
1.696
1.696
1.686
1.667
1.662
1.672
1.686
1.681
1.676
1.696
1.716
1.711
1.696
1.686
1.686
1.667
1.637
1.637
1.652
1.652
1.657
1.667
1.681
1.676
1.642
1.647
1.672
1.681
1.676
1.667
1.681
1.701
1.691
1.676
1.686
1.686
1.672
1.652
1.657
1.681
1.686
1.681
1.701
1.725
1.73
1.725
1.72
1.74
1.75
1.73
1.73
1.745
1.745
1.73
1.716
1.716
1.716
1.691
1.672
1.686
1.701
1.701
1.691
1.686
1.686
1.672
1.647
1.657
1.667
1.667
1.662
1.667
1.681
1.681
1.657
1.647
1.657
1.657
1.647
1.632
1.642
1.657
1.642
1.637
1.657
1.672
1.662
1.652
1.662
1.681
1.667
1.642
1.647
1.657
1.652
1.642
1.642
1.657
1.662
1.642
1.647
1.681
1.701
1.701
1.696
1.711
1.72
1.701
1.681
1.701
1.711
1.706
1.706
1.716
1.735
1.73
1.711
1.725
1.75
1.745
1.735
1.72
1.725
1.716
1.667
1.628
1.598
1.559
1.51
1.471
1.447
1.437
1.417
1.417
1.457
1.5
1.535
1.569
1.608
1.647
1.657
1.662
1.681
1.706
1.701
1.681
1.672
1.686
1.696
1.681
1.696
1.72
1.73
1.72
1.716
1.725
1.735
1.716
1.696
1.711
1.725
1.72
1.711
1.711
1.73
1.725
1.701
1.716
1.735
1.735
1.725
1.725
1.735
1.73
1.701
1.691
1.701
1.706
1.696
1.701
1.716
1.735
1.725
1.716
1.725
1.73
1.725
1.711
1.706
1.716
1.716
1.701
1.725
1.75
1.755
1.755
1.76
1.784
1.794
1.769
1.769
1.784
1.784
1.764
1.755
1.764
1.779
1.76
1.75
1.774
1.789
1.789
1.779
1.779
1.794
1.784
1.764
1.774
1.789
1.784
1.774
1.774
1.784
1.784
1.755
1.75
1.764
1.774
1.764
1.764
1.764
1.769
1.745
1.73
1.745
1.755
1.745
1.74
1.745
1.764
1.76
1.745
1.76
1.774
1.76
1.74
1.725
1.725
1.716
1.676
1.672
1.686
1.691
1.681
1.676
1.686
1.696
1.676
1.657
1.667
1.672
1.652
1.632
1.632
1.642
1.623
1.603
1.613
1.632
1.623
1.608
1.603
1.613
1.618
1.598
1.603
1.628
1.632
1.623
1.618
1.632
1.642
1.618
1.603
1.618
1.628
1.618
1.603
1.613
1.632
1.628
1.603
1.613
1.632
1.632
1.623
1.618
1.623
1.623
1.598
1.603
1.623
1.632
1.628
1.628
1.642
1.657
1.637
1.628
1.642
1.652
1.642
1.628
1.632
1.652
1.647
1.632
1.642
1.657
1.647
1.642
1.647
1.662
1.672
1.652
1.647
1.662
1.662
1.642
1.628
1.637
1.652
1.637
1.628
1.652
1.672
1.672
1.662
1.662
1.672
1.657
1.632
1.637
1.652
1.652
1.642
1.647
1.662
1.667
1.647
1.652
1.676
1.681
1.662
1.647
1.652
1.657
1.642
1.637
1.662
1.681
1.681
1.681
1.696
1.716
1.711
1.686
1.696
1.716
1.711
1.691
1.686
1.701
1.701
1.667
1.652
1.662
1.662
1.647
1.637
1.642
1.652
1.632
1.628
1.652
1.672
1.676
1.672
1.676
1.696
1.686
1.662
1.667
1.681
1.667
1.652
1.642
1.657
1.662
1.642
1.647
1.672
1.676
1.667
1.662
1.672
1.676
1.657
1.647
1.662
1.672
1.662
1.657
1.667
1.681
1.672
1.647
1.647
1.657
1.657
1.652
1.652
1.676
1.691
1.672
1.672
1.691
1.696
1.691
1.691
1.706
1.725
1.72
1.735
1.774
1.808
1.799
1.784
1.769
1.764
1.725
1.681
1.652
1.632
1.588
1.549
1.515
1.51
1.496
1.461
1.461
1.491
1.515
1.53
1.549
1.584
1.623
1.632
1.647
1.686
1.711
1.716
1.72
1.73
1.75
1.735
1.711
1.716
1.735
1.735
1.725
1.725
1.74
1.74
1.72
1.72
1.74
1.74
1.73
1.725
1.735
1.75
1.73
1.72
1.735
1.74
1.725
1.711
1.711
1.725
1.72
1.706
1.716
1.735
1.73
1.72
1.716
1.735
1.74
1.725
1.73
1.75
1.755
1.75
1.75
1.764
1.774
1.745
1.72
1.74
1.755
1.755
1.75
1.76
1.779
1.784
1.774
1.799
1.828
1.833
1.823
1.813
1.818
1.818
1.789
1.789
1.808
1.813
1.808
1.804
1.813
1.823
1.804
1.789
1.804
1.813
1.808
1.804
1.813
1.838
1.833
1.813
1.818
1.838
1.833
1.813
1.808
1.823
1.828
1.789
1.774
1.789
1.799
1.789
1.789
1.799
1.818
1.804
1.799
1.813
1.828
1.813
1.794
1.789
1.789
1.769
1.74
1.74
1.75
1.745
1.73
1.725
1.74
1.745
1.725
1.725
1.74
1.74
1.72
1.706
1.711
1.716
1.691
1.681
1.696
1.711
1.701
1.686
1.686
1.701
1.691
1.672
1.681
1.696
1.691
1.676
1.676
1.691
1.691
1.667
1.667
1.681
1.681
1.672
1.662
1.672
1.686
1.672
1.662
1.681
1.696
1.691
1.681
1.686
1.701
1.691
1.672
1.681
1.696
1.691
1.676
1.672
1.681
1.681
1.657
1.662
1.676
1.681
1.672
1.667
1.681
1.696
1.681
1.667
1.681
1.686
1.681
1.672
1.681
1.691
1.681
1.667
1.681
1.706
1.706
1.691
1.686
1.696
1.691
1.662
1.662
1.681
1.691
1.686
1.686
1.691
1.701
1.681
1.667
1.681
1.691
1.686
1.676
1.686
1.706
1.696
1.676
1.686
1.701
1.691
1.672
1.662
1.662
1.657
1.623
1.618
1.628
1.628
1.613
1.598
1.603
1.613
1.598
1.584
1.598
1.613
1.613
1.608
1.613
1.632
1.628
1.608
1.618
1.632
1.628
1.613
1.603
1.613
1.608
1.588
1.588
1.608
1.613
1.608
1.603
1.618
1.628
1.613
1.603
1.623
1.637
1.632
1.628
1.632
1.647
1.637
1.613
1.623
1.637
1.632
1.623
1.623
1.642
1.652
1.637
1.652
1.667
1.657
1.642
1.632
1.652
1.681
1.672
1.672
1.701
1.716
1.706
1.686
1.667
1.647
1.598
1.535
1.505
1.496
1.471
1.457
1.452
1.471
1.481
1.476
1.496
1.54
1.564
1.579
1.593
1.623
1.647
1.637
1.637
1.667
1.686
1.686
1.681
1.691
1.706
1.696
1.672
1.676
1.686
1.676
1.662
1.657
1.676
1.686
1.667
1.672
1.691
1.701
1.691
1.686
1.696
1.706
1.686
1.672
1.691
1.701
1.691
1.681
1.686
1.701
1.691
1.667
1.676
1.696
1.701
1.696
1.696
1.711
1.711
1.686
1.686
1.706
1.711
1.706
1.706
1.716
1.73
1.711
1.701
1.72
1.735
1.73
1.725
1.735
1.76
1.75
1.72
1.72
1.73
1.725
1.711
1.711
1.735
1.745
1.735
1.75
1.774
1.779
1.764
1.745
1.745
1.75
1.725
1.716
1.74
1.764
1.764
1.76
1.764
1.779
1.764
1.74
1.75
1.76
1.75
1.735
1.735
1.755
1.764
1.74
1.74
1.755
1.75
1.73
1.706
1.696
1.696
1.667
1.652
1.672
1.691
1.691
1.696
1.706
1.72
1.706
1.681
1.681
1.686
1.681
1.667
1.662
1.672
1.672
1.642
1.642
1.657
1.657
1.642
1.632
1.642
1.647
1.632
1.628
1.652
1.667
1.662
1.662
1.652
1.642
1.608
1.569
1.574
1.588
1.588
1.593
1.613
1.652
1.681
1.676
1.686
1.701
1.691
1.667
1.647
1.647
1.662
1.642
1.632
1.652
1.662
1.652
1.642
1.647
1.667
1.657
1.642
1.652
1.667
1.662
1.652
1.647
1.662
1.662
1.642
1.647
1.667
1.667
1.657
1.657
1.662
1.676
1.657
1.647
1.662
1.676
1.672
1.662
1.667
1.676
1.667
1.647
1.662
1.681
1.686
1.681
1.686
1.696
1.701
1.681
1.691
1.716
1.72
1.706
1.691
1.701
1.711
1.691
1.676
1.691
1.701
1.696
1.686
1.686
1.696
1.681
1.657
1.657
1.662
1.652
1.637
1.628
1.642
1.647
1.628
1.628
1.647
1.652
1.642
1.637
1.647
1.662
1.642
1.632
1.642
1.647
1.632
1.623
1.628
1.642
1.637
1.618
1.628
1.647
1.642
1.642
1.652
1.672
1.672
1.652
1.647
1.667
1.667
1.657
1.642
1.647
1.657
1.642
1.637
1.662
1.672
1.662
1.652
1.657
1.662
1.647
1.623
1.642
1.662
1.662
1.662
1.672
1.696
1.706
1.691
1.701
1.725
1.735
1.725
1.716
1.711
1.706
1.662
1.628
1.618
1.598
1.559
1.525
1.51
1.515
1.505
1.491
1.52
1.564
1.584
1.598
1.603
1.608
1.608
1.598
1.618
1.647
1.657
1.657
1.667
1.691
1.716
1.701
1.686
1.696
1.701
1.691
1.681
1.691
1.711
1.706
1.691
1.706
1.725
1.725
1.716
1.711
1.72
1.72
1.696
1.691
1.711
1.72
1.72
1.72
1.735
1.745
1.725
1.716
1.725
1.735
1.72
1.706
1.706
1.716
1.706
1.686
1.701
1.716
1.716
1.706
1.706
1.716
1.725
1.701
1.706
1.725
1.735
1.725
1.72
1.73
1.745
1.725
1.725
1.745
1.76
1.745
1.73
1.735
1.755
1.75
1.725
1.74
1.755
1.755
1.755
1.76
1.779
1.779
1.755
1.75
1.764
1.769
1.76
1.755
1.769
1.784
1.76
1.745
1.76
1.769
1.755
1.745
1.75
1.769
1.76
1.74
1.745
1.75
1.74
1.73
1.73
1.745
1.75
1.73
1.73
1.75
1.76
1.745
1.73
1.73
1.735
1.72
1.72
1.735
1.74
1.72
1.691
1.676
1.681
1.662
1.637
1.647
1.676
1.681
1.672
1.676
1.691
1.686
1.652
1.647
1.657
1.662
1.647
1.632
1.637
1.647
1.623
1.603
1.623
1.637
1.637
1.628
1.628
1.642
1.637
1.618
1.632
1.647
1.652
1.647
1.652
1.672
1.676
1.652
1.652
1.662
1.662
1.652
1.647
1.667
1.686
1.672
1.667
1.686
1.701
1.691
1.676
1.676
1.691
1.686
1.667
1.672
1.681
1.676
1.662
1.657
1.672
1.672
1.652
1.657
1.681
1.686
1.681
1.672
1.676
1.686
1.662
1.642
1.662
1.676
1.676
1.667
1.672
1.686
1.676
1.647
1.652
1.662
1.652
1.637
1.642
1.662
1.672
1.652
1.657
1.676
1.676
1.667
1.652
1.657
1.662
1.637
1.628
1.647
1.662
1.652
1.637
1.632
1.642
1.632
1.613
1.623
1.642
1.642
1.637
1.637
1.652
1.642
1.613
1.603
1.618
1.628
1.628
1.632
1.652
1.672
1.662
1.657
1.676
1.691
1.676
1.662
1.662
1.676
1.662
1.642
1.652
1.667
1.667
1.667
1.676
1.701
1.711
1.696
1.701
1.72
1.725
1.701
1.681
1.667
1.652
1.608
1.569
1.564
1.549
1.515
1.491
1.481
1.481
1.476
1.471
1.505
1.549
1.569
1.588
1.618
1.657
1.676
1.662
1.667
1.681
1.681
1.672
1.667
1.676
1.696
1.686
1.676
1.696
1.706
1.701
1.691
1.701
1.72
1.706
1.676
1.681
1.696
1.691
1.686
1.681
1.696
1.706
1.691
1.706
1.73
1.735
1.725
1.711
1.716
1.72
1.701
1.691
1.711
1.72
1.716
1.711
1.716
1.74
1.735
1.716
1.73
1.755
1.755
1.75
1.74
1.755
1.75
1.725
1.73
1.755
1.755
1.745
1.74
1.75
1.76
1.73
1.716
1.73
1.735
1.725
1.72
1.735
1.75
1.74
1.725
1.745
1.764
1.764
1.755
1.75
1.764
1.769
1.755
1.764
1.794
1.799
1.789
1.784
1.794
1.808
1.784
1.769
1.779
1.789
1.779
1.769
1.769
1.779
1.764
1.745
1.755
1.764
1.76
1.745
1.74
1.76
1.755
1.73
1.725
1.745
1.745
1.725
1.706
1.706
1.711
1.686
1.676
1.696
1.711
1.706
1.701
1.711
1.73
1.716
1.691
1.696
1.711
1.701
1.691
1.691
1.701
1.696
1.662
1.657
1.672
1.667
1.657
1.647
1.657
1.667
1.647
1.637
1.662
1.681
1.676
1.672
1.681
1.696
1.691
1.676
1.681
1.691
1.676
1.657
1.652
1.662
1.667
1.647
1.657
1.686
1.696
1.691
1.686
1.701
1.716
1.696
1.686
1.701
1.711
1.701
1.691
1.696
1.716
1.706
1.686
1.691
1.696
1.686
1.681
1.681
1.696
1.691
1.672
1.676
1.711
1.72
1.72
1.72
1.73
1.735
1.706
1.691
1.701
1.711
1.691
1.676
1.676
1.681
1.676
1.662
1.676
1.696
1.686
1.676
1.676
1.691
1.691
1.667
1.662
1.681
1.686
1.676
1.667
1.676
1.691
1.672
1.662
1.676
1.686
1.676
1.667
1.662
1.662
1.647
1.628
1.642
1.662
1.667
1.657
1.667
1.686
1.686
1.647
1.632
1.637
1.628
1.608
1.603
1.623
1.647
1.642
1.657
1.686
1.706
1.696
1.681
1.686
1.696
1.681
1.667
1.686
1.716
1.72
1.72
1.72
1.735
1.735
1.706
1.696
1.706
1.696
1.662
1.632
1.618
1.603
1.559
1.53
1.535
1.54
1.525
1.505
1.51
1.535
1.549
1.559
1.593
1.623
1.632
1.647
1.667
1.691
1.696
1.672
1.681
1.706
1.716
1.711
1.716
1.73
1.74
1.716
1.696
1.706
1.711
1.706
1.696
1.711
1.735
1.725
1.701
1.711
1.73
1.725
1.706
1.701
1.716
1.72
1.701
1.706
1.73
1.74
1.735
1.725
1.725
1.725
1.696
1.681
1.701
1.716
1.706
1.706
1.716
1.74
1.73
1.706
1.716
1.73
1.716
1.701
1.691
1.706
1.706
1.686
1.696
1.73
1.74
1.74
1.735
1.745
1.76
1.74
1.73
1.75
1.769
1.769
1.769
1.774
1.789
1.774
1.745
1.745
1.755
1.745
1.73
1.73
1.76
1.779
1.764
1.769
1.789
1.789
1.774
1.764
1.764
1.769
1.745
1.735
1.755
1.769
1.76
1.75
1.745
1.755
1.745
1.72
1.73
1.74
1.74
1.74
1.735
1.73
1.716
1.686
1.681
1.696
1.696
1.681
1.676
1.696
1.711
1.696
1.686
1.701
1.701
1.686
1.676
1.681
1.696
1.691
1.676
1.681
1.681
1.672
1.657
1.652
1.662
1.667
1.647
1.652
1.672
1.676
1.672
1.667
1.672
1.676
1.657
1.647
1.662
1.667
1.652
1.642
1.642
1.657
1.652
1.637
1.657
1.676
1.676
1.667
1.662
1.662
1.652
1.618
1.613
1.628
1.632
1.623
1.628
1.652
1.676
1.667
1.667
1.691
1.701
1.691
1.681
1.686
1.706
1.691
1.672
1.681
1.701
1.706
1.701
1.706
1.716
1.711
1.686
1.686
1.711
1.716
1.701
1.691
1.706
1.711
1.686
1.672
1.686
1.696
1.681
1.662
1.652
1.662
1.647
1.618
1.628
1.652
1.662
1.667
1.676
1.696
1.686
1.657
1.652
1.662
1.647
1.628
1.613
1.628
1.652
1.642
1.642
1.662
1.672
1.662
1.652
1.652
1.667
1.652
1.632
1.642
1.657
1.652
1.642
1.637
1.647
1.652
1.632
1.637
1.652
1.647
1.632
1.623
1.623
1.632
1.618
1.613
1.637
1.652
1.652
1.647
1.652
1.672
1.657
1.632
1.642
1.667
1.676
1.672
1.676
1.701
1.716
1.691
1.681
1.691
1.681
1.652
1.623
1.603
1.593
1.554
1.525
1.525
1.525
1.51
1.5
1.505
1.525
1.53
1.525
1.554
1.588
1.613
1.618
1.632
1.662
1.676
1.662
1.667
1.686
1.691
1.681
1.676
1.691
1.706
1.691
1.681
1.696
1.701
1.691
1.681
1.686
1.701
1.691
1.667
1.681
1.696
1.691
1.681
1.691
1.711
1.716
1.691
1.696
1.716
1.72
1.711
1.701
1.701
1.711
1.686
1.676
1.696
1.716
1.716
1.706
1.711
1.72
1.706
1.686
1.691
1.706
1.701
1.691
1.691
1.711
1.716
1.696
1.711
1.735
1.735
1.73
1.725
1.74
1.755
1.74
1.73
1.745
1.755
1.75
1.74
1.745
1.76
1.75
1.735
1.75
1.774
1.779
1.769
1.76
1.764
1.755
1.725
1.72
1.735
1.74
1.735
1.735
1.755
1.774
1.764
1.755
1.769
1.774
1.764
1.745
1.74
1.75
1.74
1.72
1.725
1.745
1.735
1.72
1.711
1.72
1.725
1.711
1.711
1.725
1.725
1.711
1.701
1.701
1.706
1.676
1.657
1.667
1.681
1.676
1.672
1.676
1.681
1.662
1.632
1.637
1.652
1.652
1.647
1.652
1.667
1.667
1.642
1.647
1.667
1.667
1.652
1.647
1.652
1.667
1.647
1.642
1.662
1.676
1.662
1.647
1.647
1.667
1.657
1.637
1.647
1.667
1.662
1.652
1.652
1.672
1.676
1.647
1.642
1.652
1.652
1.642
1.642
1.657
1.672
1.662
1.652
1.672
1.667
1.642
1.618
1.613
1.632
1.628
1.618
1.642
1.676
1.691
1.696
1.706
1.716
1.706
1.676
1.672
1.686
1.691
1.681
1.676
1.686
1.701
1.681
1.672
1.691
1.706
1.701
1.696
1.701
1.716
1.701
1.672
1.681
1.701
1.696
1.676
1.662
1.667
1.662
1.632
1.632
1.652
1.662
1.657
1.652
1.667
1.672
1.642
1.628
1.637
1.647
1.632
1.628
1.632
1.657
1.657
1.647
1.667
1.681
1.672
1.657
1.652
1.657
1.652
1.628
1.628
1.647
1.647
1.637
1.637
1.652
1.657
1.632
1.618
1.632
1.637
1.623
1.613
1.623
1.637
1.628
1.603
1.618
1.642
1.642
1.628
1.613
1.623
1.632
1.623
1.637
1.672
1.691
1.696
1.706
1.73
1.755
1.74
1.73
1.735
1.73
1.706
1.667
1.647
1.632
1.598
1.549
1.54
1.53
1.51
1.496
1.486
1.496
1.5
1.491
1.5
1.54
1.569
1.584
1.593
1.623
1.652
1.642
1.642
1.667
1.681
1.676
1.672
1.681
1.701
1.691
1.672
1.676
1.691
1.691
1.681
1.686
1.711
1.716
1.696
1.701
1.725
1.725
1.716
1.706
1.711
1.711
1.686
1.667
1.681
1.696
1.696
1.686
1.696
1.72
1.72
1.711
1.725
1.74
1.73
1.716
1.706
1.711
1.701
1.672
1.672
1.691
1.706
1.706
1.716
1.735
1.755
1.74
1.73
1.745
1.755
1.735
1.716
1.716
1.735
1.73
1.706
1.716
1.735
1.74
1.73
1.73
1.745
1.755
1.74
1.75
1.779
1.784
1.769
1.76
1.764
1.774
1.75
1.74
1.76
1.774
1.769
1.764
1.774
1.784
1.774
1.755
1.76
1.764
1.75
1.74
1.745
1.764
1.769
1.745
1.74
1.755
1.755
1.74
1.73
1.735
1.735
1.711
1.691
1.706
1.716
1.711
1.701
1.701
1.706
1.686
1.662
1.667
1.681
1.681
1.672
1.667
1.681
1.691
1.672
1.676
1.696
1.701
1.686
1.672
1.676
1.686
1.667
1.652
1.667
1.676
1.667
1.652
1.647
1.662
1.647
1.628
1.637
1.657
1.652
1.647
1.642
1.652
1.652
1.628
1.628
1.647
1.652
1.647
1.642
1.657
1.667
1.652
1.632
1.628
1.632
1.628
1.628
1.637
1.657
1.652
1.642
1.662
1.691
1.696
1.686
1.676
1.676
1.667
1.642
1.647
1.667
1.672
1.667
1.662
1.676
1.691
1.676
1.662
1.676
1.681
1.667
1.652
1.647
1.662
1.657
1.647
1.662
1.676
1.667
1.662
1.667
1.686
1.696
1.676
1.686
1.701
1.686
1.676
1.667
1.676
1.686
1.667
1.662
1.691
1.72
1.72
1.716
1.716
1.72
1.706
1.681
1.686
1.701
1.696
1.686
1.681
1.696
1.691
1.662
1.657
1.672
1.676
1.657
1.642
1.652
1.667
1.642
1.628
1.642
1.647
1.642
1.637
1.642
1.652
1.637
1.623
1.632
1.642
1.637
1.628
1.628
1.647
1.657
1.642
1.647
1.672
1.681
1.676
1.667
1.667
1.672
1.642
1.628
1.642
1.657
1.652
1.647
1.647
1.667
1.657
1.637
1.652
1.672
1.672
1.662
1.662
1.681
1.681
1.662
1.662
1.681
1.686
1.676
1.672
1.691
1.716
1.706
1.696
1.711
1.711
1.686
1.657
1.637
1.623
1.579
1.53
1.51
1.5
1.486
1.476
1.481
1.5
1.52
1.515
1.535
1.579
1.603
1.613
1.623
1.642
1.667
1.657
1.657
1.681
1.696
1.686
1.681
1.691
1.711
1.696
1.676
1.691
1.716
1.72
1.711
1.701
1.711
1.716
1.691
1.691
1.706
1.711
1.701
1.696
1.711
1.72
1.701
1.686
1.701
1.716
1.711
1.706
1.711
1.73
1.72
1.691
1.696
1.716
1.711
1.696
1.696
1.711
1.72
1.706
1.706
1.73
1.74
1.735
1.725
1.725
1.73
1.711
1.701
1.716
1.73
1.73
1.73
1.74
1.764
1.755
1.735
1.745
1.755
1.75
1.74
1.74
1.75
1.755
1.735
1.74
1.769
1.774
1.769
1.764
1.779
1.794
1.779
1.769
1.789
1.799
1.794
1.774
1.769
1.774
1.76
1.73
1.74
1.764
1.769
1.764
1.755
1.76
1.755
1.725
1.73
1.745
1.745
1.73
1.725
1.74
1.755
1.74
1.725
1.74
1.74
1.72
1.706
1.706
1.72
1.711
1.691
1.696
1.706
1.701
1.686
1.686
1.696
1.691
1.667
1.662
1.676
1.681
1.672
1.672
1.681
1.681
1.647
1.623
1.623
1.637
1.632
1.632
1.642
1.662
1.657
1.642
1.652
1.667
1.657
1.642
1.632
1.647
1.657
1.647
1.652
1.676
1.686
1.676
1.657
1.657
1.662
1.637
1.628
1.642
1.657
1.652
1.647
1.662
1.686
1.686
1.667
1.676
1.681
1.676
1.657
1.657
1.672
1.676
1.657
1.657
1.672
1.672
1.662
1.657
1.662
1.672
1.647
1.628
1.632
1.647
1.647
1.637
1.647
1.667
1.667
1.657
1.676
1.701
1.711
1.706
1.701
1.706
1.706
1.676
1.676
1.696
1.706
1.691
1.676
1.681
1.691
1.672
1.662
1.681
1.701
1.701
1.696
1.706
1.725
1.716
1.696
1.701
1.716
1.706
1.686
1.672
1.681
1.686
1.657
1.657
1.672
1.676
1.662
1.652
1.662
1.667
1.647
1.637
1.647
1.662
1.652
1.637
1.637
1.657
1.647
1.623
1.628
1.647
1.642
1.628
1.623
1.632
1.637
1.613
1.613
1.632
1.642
1.637
1.637
1.657
1.676
1.657
1.642
1.652
1.662
1.647
1.632
1.637
1.647
1.637
1.623
1.642
1.672
1.672
1.662
1.652
1.657
1.657
1.637
1.632
1.652
1.657
1.657
1.667
1.691
1.716
1.701
1.691
1.711
1.72
1.706
1.686
1.672
1.667
1.637
1.588
1.569
1.559
1.53
1.5
1.486
1.496
1.5
1.486
1.5
1.54
1.559
1.574
1.588
1.618
1.652
1.647
1.647
1.676
1.701
1.701
1.686
1.691
1.706
1.696
1.681
1.696
1.716
1.711
1.696
1.696
1.711
1.716
1.691
1.696
1.716
1.716
1.701
1.686
1.691
1.701
1.681
1.672
1.691
1.711
1.711
1.706
1.716
1.735
1.725
1.701
1.706
1.716
1.711
1.701
1.691
1.701
1.701
1.686
1.686
1.706
1.711
1.711
1.72
1.73
1.73
1.696
1.676
1.696
1.716
1.711
1.706
1.716
1.745
1.75
1.74
1.75
1.764
1.76
1.735
1.73
1.745
1.755
1.74
1.745
1.764
1.769
1.76
1.755
1.764
1.774
1.755
1.745
1.764
1.779
1.769
1.76
1.76
1.774
1.764
1.74
1.75
1.774
1.774
1.769
1.764
1.779
1.784
1.755
1.745
1.755
1.755
1.745
1.745
1.755
1.76
1.735
1.72
1.735
1.74
1.73
1.716
1.711
1.716
1.696
1.667
1.672
1.686
1.681
1.667
1.662
1.667
1.672
1.652
1.657
1.676
1.676
1.667
1.657
1.672
1.686
1.662
1.647
1.662
1.672
1.657
1.642
1.642
1.662
1.657
1.637
1.652
1.672
1.672
1.662
1.652
1.662
1.662
1.642
1.642
1.672
1.681
1.681
1.672
1.681
1.686
1.657
1.642
1.652
1.667
1.662
1.652
1.662
1.686
1.686
1.672
1.681
1.701
1.696
1.681
1.676
1.686
1.686
1.657
1.652
1.672
1.676
1.662
1.647
1.652
1.662
1.652
1.647
1.676
1.686
1.681
1.672
1.676
1.691
1.686
1.667
1.676
1.691
1.686
1.676
1.686
1.716
1.725
1.711
1.711
1.716
1.706
1.681
1.662
1.667
1.681
1.662
1.657
1.686
1.716
1.725
1.725
1.73
1.745
1.73
1.701
1.701
1.72
1.716
1.706
1.701
1.716
1.716
1.696
1.696
1.716
1.72
1.706
1.696
1.696
1.696
1.662
1.637
1.652
1.672
1.667
1.662
1.672
1.691
1.686
1.667
1.672
1.686
1.681
1.662
1.657
1.672
1.676
1.652
1.652
1.672
1.681
1.676
1.676
1.691
1.701
1.672
1.647
1.662
1.672
1.662
1.652
1.652
1.667
1.662
1.647
1.662
1.676
1.667
1.647
1.637
1.647
1.652
1.632
1.637
1.662
1.672
1.667
1.662
1.676
1.691
1.676
1.672
1.691
1.716
1.72
1.72
1.73
1.755
1.75
1.725
1.72
1.72
1.691
1.647
1.613
1.598
1.574
1.52
1.5
1.51
1.515
1.52
1.53
1.559
1.579
1.574
1.574
1.603
1.632
1.647
1.652
1.672
1.701
1.701
1.691
1.706
1.725
1.716
1.696
1.686
1.701
1.706
1.681
1.681
1.701
1.716
1.711
1.701
1.711
1.72
1.701
1.686
1.706
1.716
1.711
1.706
1.716
1.73
1.725
1.711
1.72
1.73
1.72
1.701
1.696
1.716
1.725
1.706
1.706
1.73
1.74
1.725
1.716
1.716
1.725
1.711
1.701
1.72
1.735
1.725
1.716
1.72
1.735
1.72
1.691
1.696
1.72
1.73
1.735
1.735
1.755
1.764
1.745
1.74
1.755
1.76
1.75
1.735
1.745
1.764
1.745
1.735
1.764
1.789
1.794
1.794
1.799
1.808
1.794
1.755
1.755
1.764
1.76
1.75
1.745
1.769
1.779
1.76
1.76
1.774
1.764
1.745
1.73
1.74
1.75
1.73
1.725
1.74
1.745
1.73
1.72
1.72
1.73
1.72
1.696
1.701
1.716
1.711
1.696
1.681
1.686
1.681
1.652
1.652
1.672
1.676
1.667
1.662
1.676
1.686
1.662
1.642
1.652
1.657
1.647
1.637
1.642
1.662
1.657
1.632
1.647
1.667
1.662
1.647
1.632
1.637
1.637
1.613
1.613
1.642
1.652
1.647
1.647
1.657
1.672
1.657
1.642
1.657
1.662
1.657
1.642
1.647
1.652
1.637
1.608
1.613
1.637
1.642
1.642
1.642
1.657
1.662
1.642
1.642
1.652
1.647
1.632
1.628
1.642
1.662
1.652
1.652
1.681
1.706
1.706
1.691
1.686
1.691
1.672
1.642
1.647
1.667
1.667
1.657
1.662
1.686
1.696
1.676
1.672
1.686
1.691
1.681
1.672
1.676
1.691
1.681
1.672
1.691
1.711
1.706
1.686
1.676
1.672
1.652
1.623
1.628
1.652
1.662
1.662
1.676
1.706
1.711
1.686
1.672
1.676
1.662
1.632
1.613
1.623
1.637
1.628
1.623
1.642
1.657
1.652
1.642
1.647
1.662
1.657
1.632
1.642
1.657
1.652
1.637
1.618
1.613
1.608
1.579
1.579
1.598
1.613
1.618
1.618
1.637
1.652
1.637
1.628
1.637
1.642
1.628
1.618
1.623
1.642
1.637
1.623
1.642
1.672
1.681
1.681
1.691
1.72
1.74
1.72
1.72
1.735
1.725
