Num1
1.681
1.681
1.667
1.652
1.662
1.676
1.662
1.652
1.667
1.681
1.676
1.662
1.667
1.681
1.667
1.642
1.642
1.652
1.642
1.623
1.603
1.613
1.608
1.584
1.588
1.618
1.652
1.691
1.764
1.867
1.97
2.038
2.097
2.17
2.219
2.219
2.195
2.165
2.126
2.048
1.955
1.882
1.823
1.755
1.686
1.637
1.628
1.623
1.603
1.613
1.652
1.676
1.681
1.672
1.681
1.686
1.657
1.632
1.647
1.657
1.647
1.632
1.642
1.657
1.652
1.632
1.647
1.662
1.662
1.647
1.647
1.662
1.662
1.637
1.637
1.662
1.667
1.657
1.647
1.657
1.672
1.652
1.642
1.652
1.667
1.662
1.657
1.662
1.686
1.681
1.667
1.676
1.696
1.696
1.686
1.681
1.696
1.696
1.667
1.667
1.691
1.701
1.696
1.691
1.706
1.72
1.701
1.691
1.711
1.72
1.706
1.696
1.696
1.716
1.716
1.701
1.716
1.735
1.73
1.725
1.72
1.74
1.745
1.72
1.72
1.745
1.75
1.74
1.73
1.745
1.75
1.725
1.711
1.725
1.74
1.735
1.735
1.74
1.76
1.755
1.74
1.75
1.764
1.755
1.74
1.74
1.755
1.76
1.73
1.725
1.745
1.745
1.735
1.72
1.73
1.74
1.725
1.716
1.735
1.745
1.74
1.725
1.725
1.74
1.73
1.701
1.706
1.716
1.711
1.696
1.691
1.706
1.706
1.676
1.676
1.691
1.691
1.676
1.667
1.676
1.686
1.667
1.657
1.667
1.681
1.667
1.647
1.647
1.662
1.652
1.632
1.647
1.672
1.676
1.672
1.667
1.686
1.681
1.652
1.647
1.662
1.662
1.652
1.647
1.662
1.681
1.662
1.652
1.672
1.686
1.681
1.672
1.672
1.686
1.676
1.652
1.657
1.672
1.667
1.652
1.652
1.667
1.672
1.652
1.657
1.681
1.691
1.681
1.672
1.681
1.696
1.667
1.652
1.672
1.686
1.681
1.676
1.681
1.696
1.686
1.662
1.667
1.676
1.667
1.657
1.652
1.667
1.676
1.652
1.652
1.672
1.681
1.672
1.662
1.672
1.681
1.657
1.642
1.652
1.667
1.662
1.652
1.662
1.686
1.686
1.672
1.686
1.711
1.706
1.696
1.691
1.711
1.711
1.691
1.691
1.716
1.72
1.716
1.711
1.73
1.75
1.735
1.73
1.745
1.76
1.745
1.735
1.735
1.75
1.735
1.711
1.72
1.73
1.725
1.711
1.706
1.716
1.711
1.672
1.662
1.681
1.681
1.667
1.652
1.657
1.667
1.642
1.632
1.652
1.667
1.667
1.662
1.672
1.696
1.691
1.667
1.672
1.681
1.662
1.637
1.623
1.628
1.618
1.584
1.584
1.608
1.628
1.647
1.681
1.76
1.843
1.906
1.97
2.043
2.102
2.121
2.116
2.107
2.087
2.028
1.945
1.891
1.843
1.769
1.701
1.652
1.637
1.623
1.593
1.598
1.632
1.652
1.657
1.657
1.672
1.681
1.652
1.637
1.652
1.662
1.652
1.647
1.657
1.676
1.667
1.642
1.647
1.667
1.657
1.647
1.642
1.667
1.672
1.647
1.652
1.676
1.681
1.667
1.657
1.662
1.672
1.647
1.632
1.652
1.667
1.667
1.662
1.672
1.696
1.686
1.667
1.676
1.696
1.691
1.672
1.667
1.686
1.696
1.676
1.681
1.706
1.711
1.701
1.691
1.701
1.711
1.686
1.676
1.696
1.711
1.711
1.706
1.716
1.735
1.725
1.706
1.72
1.74
1.735
1.725
1.725
1.74
1.745
1.72
1.72
1.74
1.745
1.735
1.73
1.75
1.76
1.74
1.725
1.74
1.75
1.74
1.73
1.74
1.755
1.745
1.72
1.725
1.74
1.74
1.725
1.725
1.745
1.745
1.72
1.72
1.74
1.74
1.725
1.711
1.725
1.74
1.72
1.716
1.735
1.745
1.73
1.716
1.711
1.716
1.696
1.676
1.681
1.696
1.691
1.681
1.681
1.696
1.696
1.667
1.657
1.672
1.672
1.657
1.647
1.657
1.662
1.637
1.623
1.637
1.647
1.642
1.628
1.632
1.642
1.632
1.618
1.628
1.647
1.647
1.632
1.637
1.652
1.657
1.632
1.637
1.657
1.657
1.642
1.637
1.647
1.657
1.642
1.628
1.647
1.657
1.647
1.637
1.642
1.662
1.657
1.637
1.652
1.667
1.667
1.652
1.652
1.667
1.667
1.647
1.647
1.667
1.672
1.657
1.647
1.657
1.667
1.642
1.632
1.647
1.657
1.647
1.642
1.652
1.667
1.657
1.637
1.652
1.667
1.657
1.647
1.642
1.657
1.662
1.632
1.637
1.657
1.662
1.652
1.647
1.662
1.672
1.657
1.652
1.676
1.691
1.681
1.672
1.676
1.691
1.686
1.672
1.686
1.706
1.706
1.701
1.706
1.725
1.725
1.696
1.696
1.716
1.716
1.711
1.701
1.716
1.725
1.701
1.681
1.696
1.691
1.676
1.657
1.657
1.672
1.657
1.632
1.642
1.657
1.652
1.642
1.637
1.652
1.647
1.623
1.623
1.637
1.637
1.623
1.618
1.632
1.642
1.618
1.603
1.613
1.613
1.588
1.569
1.564
1.574
1.564
1.569
1.613
1.691
1.76
1.843
1.935
2.038
2.107
2.131
2.16
2.185
2.16
2.107
2.038
1.979
1.916
1.818
1.74
1.696
1.662
1.618
1.584
1.584
1.603
1.603
1.598
1.623
1.647
1.642
1.628
1.623
1.637
1.632
1.608
1.618
1.637
1.637
1.628
1.618
1.632
1.637
1.613
1.603
1.623
1.632
1.628
1.623
1.632
1.652
1.642
1.628
1.637
1.652
1.647
1.628
1.623
1.642
1.647
1.628
1.628
1.657
1.662
1.657
1.652
1.667
1.672
1.647
1.632
1.652
1.662
1.647
1.637
1.647
1.667
1.657
1.642
1.662
1.686
1.686
1.676
1.676
1.696
1.696
1.672
1.676
1.691
1.696
1.686
1.676
1.696
1.716
1.696
1.686
1.711
1.72
1.706
1.701
1.711
1.725
1.711
1.691
1.706
1.725
1.725
1.716
1.72
1.74
1.745
1.72
1.72
1.74
1.74
1.725
1.716
1.725
1.735
1.711
1.706
1.725
1.735
1.725
1.711
1.716
1.73
1.711
1.691
1.701
1.72
1.716
1.706
1.706
1.72
1.72
1.696
1.696
1.706
1.706
1.691
1.681
1.691
1.706
1.676
1.667
1.681
1.686
1.672
1.657
1.657
1.667
1.652
1.632
1.642
1.657
1.647
1.632
1.628
1.647
1.642
1.618
1.623
1.637
1.637
1.628
1.623
1.632
1.647
1.623
1.618
1.632
1.642
1.637
1.623
1.628
1.642
1.628
1.608
1.618
1.637
1.637
1.632
1.637
1.657
1.662
1.637
1.642
1.657
1.657
1.647
1.637
1.647
1.657
1.632
1.628
1.647
1.657
1.652
1.642
1.652
1.667
1.652
1.628
1.637
1.652
1.652
1.647
1.642
1.667
1.667
1.642
1.652
1.672
1.672
1.652
1.642
1.652
1.657
1.632
1.623
1.637
1.642
1.632
1.618
1.632
1.657
1.652
1.632
1.642
1.657
1.652
1.637
1.632
1.647
1.642
1.618
1.623
1.647
1.657
1.652
1.652
1.667
1.681
1.662
1.652
1.672
1.681
1.672
1.667
1.676
1.696
1.691
1.681
1.706
1.725
1.72
1.716
1.716
1.73
1.725
1.691
1.691
1.706
1.711
1.701
1.691
1.706
1.706
1.676
1.667
1.676
1.676
1.657
1.637
1.642
1.657
1.642
1.628
1.642
1.652
1.642
1.632
1.632
1.647
1.647
1.618
1.623
1.642
1.642
1.628
1.618
1.623
1.623
1.584
1.564
1.574
1.574
1.559
1.554
1.579
1.632
1.681
1.755
1.877
2.014
2.121
2.209
2.278
2.331
2.336
2.297
2.248
2.195
2.102
1.989
1.887
1.813
1.75
1.667
1.618
1.613
1.608
1.603
1.603
1.623
1.652
1.637
1.618
1.623
1.628
1.613
1.593
1.588
1.613
1.618
1.598
1.603
1.628
1.628
1.613
1.608
1.618
1.628
1.598
1.593
1.613
1.628
1.623
1.618
1.632
1.652
1.642
1.623
1.632
1.647
1.647
1.647
1.647
1.662
1.657
1.623
1.623
1.642
1.647
1.637
1.628
1.642
1.652
1.632
1.628
1.642
1.647
1.637
1.632
1.647
1.672
1.667
1.657
1.672
1.681
1.672
1.657
1.657
1.681
1.681
1.662
1.672
1.696
1.701
1.691
1.681
1.691
1.696
1.672
1.667
1.691
1.706
1.696
1.691
1.696
1.711
1.701
1.686
1.706
1.725
1.72
1.706
1.706
1.725
1.72
1.696
1.696
1.72
1.72
1.711
1.706
1.72
1.725
1.701
1.696
1.716
1.72
1.706
1.696
1.706
1.72
1.711
1.696
1.706
1.72
1.711
1.696
1.696
1.711
1.706
1.676
1.681
1.701
1.696
1.686
1.676
1.691
1.691
1.662
1.647
1.657
1.662
1.647
1.637
1.647
1.662
1.642
1.628
1.637
1.647
1.637
1.628
1.628
1.647
1.642
1.618
1.623
1.642
1.642
1.628
1.623
1.632
1.637
1.618
1.618
1.637
1.647
1.637
1.632
1.642
1.657
1.642
1.628
1.647
1.662
1.657
1.642
1.642
1.657
1.652
1.628
1.632
1.652
1.652
1.647
1.642
1.657
1.662
1.637
1.628
1.647
1.652
1.642
1.632
1.642
1.657
1.642
1.628
1.642
1.662
1.652
1.642
1.642
1.662
1.662
1.637
1.642
1.662
1.657
1.647
1.642
1.657
1.667
1.637
1.632
1.647
1.657
1.647
1.642
1.647
1.667
1.647
1.628
1.637
1.657
1.647
1.637
1.637
1.652
1.652
1.628
1.637
1.657
1.657
1.647
1.647
1.662
1.676
1.657
1.657
1.681
1.691
1.676
1.667
1.676
1.696
1.686
1.672
1.696
1.72
1.725
1.72
1.725
1.74
1.735
1.711
1.711
1.725
1.725
1.716
1.706
1.716
1.716
1.686
1.681
1.696
1.701
1.686
1.672
1.672
1.681
1.657
1.632
1.642
1.652
1.642
1.628
1.628
1.642
1.642
1.618
1.623
1.637
1.628
1.618
1.623
1.647
1.657
1.628
1.618
1.623
1.613
1.584
1.559
1.559
1.569
1.574
1.598
1.681
1.789
1.901
2.014
2.141
2.253
2.317
2.331
2.346
2.336
2.283
2.199
2.107
2.023
1.935
1.833
1.75
1.706
1.667
1.623
1.593
1.598
1.618
1.613
1.613
1.637
1.657
1.647
1.628
1.623
1.632
1.623
1.598
1.608
1.628
1.628
1.613
1.608
1.623
1.628
1.603
1.598
1.618
1.623
1.618
1.613
1.628
1.642
1.628
1.618
1.632
1.652
1.642
1.628
1.628
1.642
1.642
1.618
1.623
1.642
1.642
1.632
1.628
1.642
1.652
1.628
1.628
1.647
1.657
1.642
1.637
1.652
1.672
1.657
1.642
1.662
1.676
1.676
1.667
1.672
1.691
1.686
1.662
1.672
1.686
1.686
1.672
1.667
1.686
1.701
1.672
1.672
1.696
1.706
1.696
1.691
1.701
1.72
1.706
1.691
1.706
1.72
1.716
1.706
1.706
1.716
1.701
1.676
1.686
1.711
1.711
1.706
1.701
1.725
1.735
1.711
1.706
1.72
1.725
1.711
1.696
1.706
1.716
1.701
1.686
1.706
1.72
1.716
1.701
1.701
1.716
1.701
1.676
1.681
1.696
1.691
1.676
1.672
1.686
1.696
1.667
1.662
1.681
1.686
1.672
1.662
1.667
1.672
1.647
1.632
1.642
1.657
1.647
1.637
1.642
1.662
1.657
1.628
1.632
1.647
1.647
1.632
1.628
1.642
1.647
1.628
1.623
1.647
1.662
1.647
1.637
1.642
1.647
1.632
1.623
1.637
1.652
1.642
1.632
1.637
1.662
1.662
1.637
1.642
1.662
1.652
1.642
1.642
1.657
1.662
1.637
1.637
1.657
1.662
1.647
1.637
1.642
1.657
1.637
1.623
1.642
1.657
1.652
1.642
1.647
1.662
1.657
1.632
1.637
1.657
1.652
1.642
1.637
1.657
1.662
1.637
1.632
1.652
1.657
1.647
1.642
1.657
1.672
1.652
1.637
1.652
1.667
1.657
1.647
1.647
1.662
1.652
1.628
1.637
1.652
1.647
1.632
1.628
1.642
1.647
1.623
1.618
1.642
1.652
1.647
1.632
1.647
1.662
1.652
1.637
1.657
1.667
1.657
1.647
1.657
1.681
1.681
1.657
1.667
1.686
1.681
1.667
1.662
1.672
1.676
1.652
1.652
1.686
1.706
1.706
1.706
1.725
1.74
1.725
1.711
1.73
1.74
1.725
1.711
1.716
1.73
1.72
1.696
1.696
1.706
1.691
1.672
1.662
1.667
1.667
1.637
1.632
1.652
1.662
1.657
1.652
1.662
1.672
1.652
1.632
1.647
1.652
1.642
1.628
1.632
1.652
1.642
1.618
1.618
1.618
1.593
1.559
1.544
1.554
1.559
1.549
1.579
1.652
1.74
1.838
1.955
2.092
2.219
2.287
2.331
2.38
2.385
2.346
2.273
2.195
2.111
2.004
1.887
1.804
1.75
1.691
1.632
1.603
1.608
1.618
1.603
1.618
1.657
1.667
1.652
1.637
1.632
1.632
1.608
1.593
1.613
1.623
1.618
1.608
1.613
1.628
1.618
1.598
1.608
1.628
1.632
1.623
1.623
1.642
1.647
1.623
1.623
1.642
1.647
1.632
1.623
1.632
1.647
1.628
1.613
1.632
1.647
1.637
1.628
1.637
1.657
1.652
1.628
1.637
1.662
1.662
1.652
1.647
1.667
1.672
1.647
1.642
1.667
1.676
1.667
1.662
1.672
1.686
1.667
1.652
1.672
1.691
1.686
1.676
1.681
1.706
1.701
1.681
1.691
1.706
1.701
1.691
1.691
1.711
1.72
1.701
1.706
1.73
1.73
1.72
1.711
1.72
1.74
1.72
1.706
1.72
1.735
1.725
1.716
1.716
1.73
1.716
1.691
1.706
1.725
1.725
1.716
1.716
1.73
1.725
1.701
1.691
1.706
1.706
1.701
1.696
1.711
1.725
1.711
1.696
1.716
1.72
1.711
1.691
1.696
1.711
1.701
1.676
1.681
1.701
1.696
1.676
1.672
1.686
1.686
1.657
1.652
1.672
1.672
1.657
1.642
1.647
1.652
1.632
1.618
1.637
1.657
1.657
1.642
1.647
1.662
1.652
1.632
1.642
1.662
1.657
1.642
1.642
1.662
1.667
1.642
1.637
1.657
1.657
1.642
1.637
1.647
1.667
1.647
1.637
1.652
1.667
1.657
1.642
1.642
1.657
1.647
1.628
1.642
1.662
1.657
1.647
1.642
1.657
1.662
1.632
1.632
1.652
1.657
1.652
1.647
1.657
1.672
1.652
1.642
1.657
1.662
1.657
1.647
1.652
1.667
1.657
1.637
1.647
1.667
1.662
1.647
1.642
1.657
1.662
1.632
1.632
1.647
1.652
1.642
1.642
1.657
1.672
1.647
1.632
1.652
1.662
1.647
1.632
1.637
1.652
1.642
1.623
1.632
1.652
1.652
1.642
1.642
1.662
1.667
1.642
1.637
1.657
1.657
1.642
1.637
1.647
1.662
1.642
1.632
1.652
1.667
1.657
1.647
1.647
1.662
1.652
1.632
1.642
1.662
1.662
1.657
1.657
1.681
1.686
1.662
1.662
1.681
1.686
1.681
1.676
1.691
1.711
1.701
1.706
1.725
1.745
1.74
1.725
1.73
1.75
1.74
1.716
1.72
1.74
1.73
1.711
1.701
1.711
1.706
1.676
1.672
1.686
1.681
1.667
1.652
1.667
1.676
1.652
1.637
1.652
1.662
1.657
1.637
1.642
1.652
1.642
1.628
1.642
1.657
1.652
1.632
1.628
1.632
1.623
1.579
1.564
1.564
1.554
1.549
1.564
1.623
1.711
1.789
1.896
2.043
2.18
2.273
2.336
2.38
2.405
2.375
2.307
2.239
2.155
2.043
1.935
1.838
1.769
1.701
1.628
1.593
1.598
1.603
1.603
1.613
1.642
1.667
1.647
1.637
1.642
1.642
1.632
1.618
1.623
1.642
1.632
1.613
1.623
1.637
1.632
1.623
1.618
1.637
1.642
1.618
1.618
1.637
1.637
1.628
1.623
1.637
1.652
1.632
1.628
1.652
1.662
1.657
1.647
1.652
1.672
1.657
1.637
1.647
1.662
1.657
1.647
1.652
1.667
1.672
1.642
1.647
1.672
1.676
1.676
1.667
1.681
1.696
1.672
1.662
1.681
1.696
1.691
1.686
1.696
1.711
1.701
1.686
1.696
1.711
1.701
1.681
1.681
1.706
1.716
1.701
1.706
1.73
1.735
1.73
1.72
1.735
1.745
1.72
1.711
1.73
1.74
1.735
1.725
1.73
1.75
1.73
1.711
1.72
1.735
1.73
1.72
1.72
1.735
1.735
1.706
1.706
1.725
1.73
1.716
1.706
1.725
1.74
1.72
1.711
1.725
1.74
1.735
1.725
1.73
1.745
1.725
1.706
1.716
1.725
1.711
1.696
1.691
1.706
1.701
1.676
1.676
1.696
1.691
1.676
1.662
1.672
1.676
1.652
1.642
1.662
1.667
1.662
1.652
1.667
1.681
1.672
1.647
1.662
1.672
1.662
1.647
1.642
1.662
1.667
1.637
1.637
1.657
1.657
1.652
1.642
1.662
1.676
1.657
1.652
1.672
1.686
1.676
1.662
1.667
1.676
1.657
1.632
1.642
1.662
1.657
1.647
1.652
1.667
1.667
1.647
1.647
1.667
1.667
1.662
1.657
1.672
1.686
1.672
1.667
1.681
1.686
1.676
1.657
1.662
1.672
1.657
1.632
1.642
1.662
1.657
1.642
1.647
1.667
1.672
1.652
1.657
1.672
1.672
1.657
1.647
1.657
1.667
1.637
1.632
1.652
1.667
1.657
1.642
1.647
1.667
1.657
1.642
1.657
1.667
1.662
1.647
1.647
1.667
1.667
1.647
1.652
1.681
1.686
1.681
1.681
1.696
1.701
1.676
1.667
1.681
1.696
1.691
1.691
1.701
1.72
1.716
1.706
1.725
1.745
1.74
1.73
1.725
1.745
1.74
1.716
1.72
1.735
1.73
1.711
1.701
1.706
1.706
1.676
1.662
1.672
1.676
1.662
1.652
1.657
1.672
1.652
1.637
1.657
1.676
1.672
1.662
1.662
1.676
1.672
1.642
1.642
1.652
1.647
1.628
1.613
1.618
1.613
1.579
1.559
1.574
1.588
1.603
1.632
1.711
1.828
1.935
2.038
2.165
2.268
2.326
2.346
2.346
2.331
2.268
2.16
2.067
1.979
1.882
1.784
1.701
1.662
1.632
1.593
1.588
1.618
1.642
1.652
1.652
1.667
1.681
1.652
1.618
1.618
1.628
1.623
1.618
1.632
1.657
1.662
1.632
1.637
1.652
1.647
1.632
1.623
1.637
1.647
1.623
1.613
1.637
1.652
1.642
1.637
1.647
1.662
1.647
1.632
1.642
1.657
1.652
1.637
1.637
1.652
1.652
1.637
1.647
1.672
1.676
1.662
1.657
1.667
1.676
1.652
1.642
1.662
1.672
1.667
1.662
1.672
1.686
1.676
1.672
1.691
1.711
1.706
1.696
1.701
1.72
1.716
1.691
1.691
1.711
1.711
1.701
1.701
1.716
1.73
1.711
1.706
1.72
1.73
1.716
1.706
1.716
1.74
1.725
1.711
1.725
1.74
1.735
1.72
1.72
1.735
1.73
1.701
1.706
1.725
1.725
1.716
1.711
1.725
1.74
1.716
1.716
1.735
1.745
1.73
1.711
1.716
1.73
1.72
1.706
1.72
1.735
1.725
1.711
1.711
1.72
1.716
1.681
1.681
1.701
1.696
1.686
1.676
1.691
1.696
1.667
1.657
1.672
1.676
1.662
1.647
1.652
1.662
1.642
1.628
1.637
1.657
1.647
1.637
1.637
1.657
1.652
1.632
1.642
1.667
1.667
1.657
1.652
1.667
1.672
1.637
1.628
1.647
1.652
1.647
1.637
1.652
1.672
1.657
1.642
1.652
1.667
1.662
1.657
1.657
1.676
1.672
1.647
1.652
1.672
1.667
1.657
1.647
1.662
1.667
1.642
1.637
1.652
1.662
1.657
1.647
1.662
1.681
1.667
1.647
1.657
1.672
1.662
1.642
1.642
1.657
1.652
1.632
1.642
1.662
1.662
1.652
1.647
1.657
1.662
1.637
1.637
1.657
1.667
1.662
1.652
1.667
1.686
1.672
1.652
1.667
1.676
1.667
1.657
1.667
1.696
1.706
1.691
1.711
1.74
1.745
1.735
1.73
1.74
1.74
1.711
1.706
1.72
1.725
1.716
1.706
1.716
1.725
1.706
1.681
1.691
1.696
1.681
1.662
1.657
1.672
1.657
1.628
1.632
1.652
1.647
1.637
1.628
1.642
1.647
1.623
1.623
1.647
1.657
1.647
1.637
1.637
1.642
1.613
1.579
1.579
1.579
1.564
1.554
1.574
1.632
1.696
1.774
1.901
2.048
2.17
2.258
2.322
2.37
2.38
2.336
2.273
2.209
2.111
1.999
1.882
1.804
1.74
1.662
1.608
1.593
1.598
1.598
1.598
1.623
1.657
1.662
1.642
1.642
1.647
1.632
1.613
1.603
1.618
1.628
1.603
1.603
1.623
1.632
1.618
1.608
1.613
1.628
1.623
1.613
1.632
1.647
1.642
1.637
1.637
1.657
1.647
1.623
1.628
1.647
1.642
1.632
1.632
1.652
1.662
1.637
1.632
1.652
1.657
1.647
1.642
1.657
1.672
1.652
1.637
1.652
1.672
1.662
1.657
1.662
1.681
1.681
1.657
1.667
1.686
1.686
1.676
1.676
1.696
1.706
1.681
1.681
1.711
1.72
1.711
1.701
1.711
1.725
1.706
1.691
1.706
1.725
1.716
1.711
1.716
1.735
1.73
1.711
1.72
1.745
1.74
1.725
1.72
1.735
1.74
1.711
1.711
1.725
1.725
1.716
1.711
1.72
1.735
1.716
1.701
1.72
1.735
1.725
1.716
1.716
1.735
1.73
1.706
1.716
1.73
1.73
1.72
1.711
1.72
1.72
1.691
1.686
1.701
1.701
1.691
1.676
1.686
1.696
1.676
1.657
1.672
1.681
1.667
1.647
1.647
1.662
1.652
1.628
1.637
1.652
1.647
1.637
1.632
1.647
1.647
1.628
1.623
1.642
1.647
1.637
1.628
1.637
1.647
1.632
1.623
1.647
1.667
1.667
1.657
1.667
1.686
1.676
1.647
1.647
1.652
1.647
1.632
1.632
1.652
1.667
1.647
1.652
1.672
1.672
1.662
1.647
1.657
1.667
1.652
1.642
1.657
1.672
1.662
1.647
1.647
1.662
1.652
1.623
1.628
1.647
1.647
1.637
1.637
1.657
1.672
1.652
1.652
1.672
1.676
1.667
1.662
1.667
1.681
1.657
1.647
1.667
1.686
1.681
1.676
1.691
1.716
1.716
1.701
1.711
1.73
1.725
1.711
1.706
1.72
1.72
1.696
1.696
1.72
1.725
1.711
1.701
1.711
1.72
1.691
1.672
1.676
1.676
1.657
1.637
1.637
1.647
1.632
1.613
1.623
1.647
1.647
1.637
1.632
1.647
1.647
1.623
1.618
1.632
1.637
1.628
1.613
1.618
1.618
1.579
1.544
1.544
1.554
1.549
1.554
1.588
1.662
1.74
1.828
1.965
2.102
2.199
2.268
2.322
2.356
2.351
2.292
2.224
2.155
2.058
1.945
1.838
1.76
1.706
1.632
1.584
1.584
1.593
1.598
1.598
1.618
1.647
1.642
1.623
1.623
1.628
1.613
1.593
1.588
1.608
1.618
1.593
1.588
1.608
1.618
1.613
1.603
1.618
1.632
1.613
1.603
1.618
1.628
1.618
1.603
1.608
1.632
1.623
1.603
1.608
1.628
1.628
1.618
1.613
1.637
1.642
1.623
1.623
1.642
1.647
1.642
1.632
1.642
1.652
1.637
1.628
1.647
1.657
1.652
1.642
1.647
1.672
1.667
1.652
1.662
1.686
1.686
1.672
1.672
1.686
1.691
1.672
1.672
1.696
1.706
1.696
1.691
1.701
1.716
1.696
1.681
1.701
1.711
1.706
1.696
1.706
1.725
1.72
1.701
1.706
1.72
1.72
1.706
1.701
1.716
1.725
1.706
1.711
1.73
1.735
1.725
1.716
1.72
1.73
1.706
1.691
1.701
1.716
1.711
1.701
1.711
1.73
1.72
1.696
1.701
1.716
1.706
1.691
1.686
1.701
1.706
1.681
1.681
1.696
1.696
1.686
1.672
1.676
1.681
1.652
1.637
1.652
1.667
1.657
1.637
1.642
1.662
1.657
1.637
1.647
1.662
1.657
1.642
1.642
1.652
1.657
1.628
1.623
1.642
1.647
1.637
1.628
1.642
1.657
1.637
1.628
1.642
1.652
1.647
1.637
1.647
1.667
1.657
1.637
1.647
1.667
1.662
1.647
1.647
1.662
1.662
1.637
1.637
1.657
1.657
1.647
1.642
1.657
1.672
1.657
1.647
1.667
1.676
1.662
1.647
1.652
1.667
1.652
1.628
1.637
1.657
1.652
1.642
1.642
1.662
1.667
1.642
1.647
1.672
1.681
1.672
1.662
1.672
1.676
1.652
1.642
1.667
1.686
1.691
1.691
1.706
1.735
1.73
1.711
1.72
1.73
1.72
1.706
1.701
1.72
1.73
1.711
1.716
1.735
1.73
1.711
1.696
1.696
1.696
1.662
1.647
1.657
1.667
1.657
1.642
1.647
1.662
1.647
1.628
1.637
1.652
1.647
1.637
1.632
1.647
1.652
1.628
1.628
1.647
1.647
1.637
1.623
1.628
1.628
1.588
1.564
1.569
1.579
1.579
1.593
1.642
1.725
1.808
1.887
1.999
2.102
2.17
2.209
2.234
2.248
2.229
2.155
2.092
2.028
1.945
1.838
1.75
1.696
1.652
1.593
1.564
1.584
1.608
1.623
1.637
1.657
1.681
1.662
1.632
1.632
1.642
1.637
1.623
1.623
1.642
1.647
1.628
1.632
1.647
1.647
1.637
1.628
1.642
1.652
1.628
1.618
1.637
1.652
1.652
1.647
1.657
1.676
1.662
1.642
1.652
1.667
1.662
1.652
1.652
1.672
1.676
1.657
1.662
1.681
1.681
1.667
1.657
1.672
1.691
1.672
1.667
1.686
1.701
1.696
1.691
1.696
1.711
1.696
1.676
1.691
1.711
1.706
1.701
1.701
1.72
1.72
1.696
1.696
1.72
1.72
1.716
1.706
1.725
1.74
1.72
1.711
1.73
1.74
1.73
1.72
1.73
1.75
1.74
1.72
1.735
1.755
1.755
1.74
1.735
1.755
1.75
1.725
1.735
1.755
1.755
1.745
1.735
1.75
1.755
1.73
1.72
1.735
1.74
1.73
1.72
1.73
1.75
1.74
1.72
1.735
1.755
1.745
1.73
1.725
1.74
1.735
1.706
1.701
1.716
1.706
1.691
1.681
1.686
1.696
1.672
1.657
1.672
1.676
1.672
1.662
1.672
1.686
1.667
1.647
1.657
1.672
1.667
1.652
1.647
1.662
1.667
1.647
1.652
1.676
1.676
1.667
1.657
1.667
1.676
1.652
1.647
1.672
1.686
1.681
1.672
1.676
1.686
1.672
1.657
1.667
1.681
1.676
1.662
1.662
1.681
1.681
1.657
1.662
1.681
1.681
1.667
1.662
1.676
1.686
1.657
1.647
1.667
1.676
1.667
1.657
1.667
1.691
1.681
1.662
1.676
1.691
1.681
1.672
1.676
1.696
1.701
1.681
1.686
1.706
1.706
1.696
1.691
1.711
1.725
1.711
1.711
1.735
1.745
1.735
1.73
1.74
1.76
1.735
1.711
1.716
1.73
1.716
1.701
1.701
1.716
1.711
1.681
1.686
1.701
1.691
1.672
1.657
1.662
1.662
1.637
1.632
1.652
1.662
1.657
1.642
1.647
1.662
1.647
1.623
1.637
1.652
1.647
1.632
1.632
1.642
1.637
1.603
1.603
1.613
1.608
1.593
1.588
1.613
1.642
1.662
1.716
1.804
1.887
1.95
1.999
2.048
2.092
2.087
2.063
2.048
2.019
1.955
1.887
1.828
1.789
1.735
1.662
1.628
1.623
1.618
1.608
1.613
1.642
1.662
1.647
1.642
1.662
1.667
1.652
1.642
1.647
1.662
1.652
1.632
1.647
1.662
1.657
1.642
1.642
1.662
1.657
1.637
1.642
1.662
1.662
1.652
1.647
1.662
1.672
1.652
1.642
1.662
1.667
1.657
1.652
1.657
1.681
1.667
1.652
1.667
1.686
1.681
1.667
1.672
1.691
1.691
1.672
1.681
1.701
1.701
1.691
1.681
1.691
1.701
1.681
1.672
1.691
1.701
1.696
1.686
1.701
1.716
1.701
1.686
1.701
1.72
1.72
1.711
1.716
1.73
1.73
1.711
1.716
1.73
1.73
1.72
1.716
1.735
1.745
1.725
1.716
1.735
1.745
1.735
1.73
1.74
1.764
1.75
1.735
1.75
1.764
1.75
1.725
1.72
1.73
1.725
1.701
1.711
1.73
1.735
1.73
1.725
1.74
1.745
1.716
1.706
1.725
1.73
1.72
1.706
1.716
1.73
1.711
1.691
1.701
1.716
1.706
1.686
1.681
1.696
1.686
1.662
1.662
1.681
1.681
1.672
1.667
1.681
1.686
1.657
1.647
1.657
1.662
1.647
1.637
1.647
1.662
1.647
1.632
1.642
1.657
1.652
1.637
1.642
1.662
1.657
1.637
1.642
1.662
1.662
1.647
1.642
1.652
1.657
1.637
1.642
1.667
1.681
1.672
1.657
1.662
1.676
1.657
1.642
1.652
1.667
1.662
1.652
1.657
1.676
1.676
1.652
1.662
1.681
1.681
1.667
1.662
1.676
1.686
1.662
1.657
1.681
1.691
1.686
1.681
1.691
1.711
1.691
1.672
1.686
1.701
1.691
1.681
1.686
1.711
1.716
1.696
1.706
1.735
1.735
1.725
1.716
1.73
1.735
1.711
1.701
1.716
1.72
1.706
1.691
1.696
1.701
1.676
1.652
1.662
1.672
1.657
1.642
1.642
1.662
1.657
1.637
1.642
1.662
1.657
1.642
1.637
1.647
1.652
1.632
1.628
1.642
1.647
1.637
1.623
1.628
1.637
1.613
1.588
1.598
1.603
1.593
1.584
1.593
1.628
1.657
1.696
1.779
1.882
1.96
2.019
2.067
2.126
2.155
2.126
2.097
2.067
2.014
1.931
1.848
1.789
1.735
1.662
1.603
1.593
1.598
1.593
1.593
1.618
1.657
1.662
1.642
1.642
1.657
1.647
1.628
1.623
1.637
1.642
1.623
1.613
1.628
1.628
1.618
1.608
1.618
1.637
1.623
1.613
1.632
1.647
1.637
1.623
1.623
1.642
1.637
1.613
1.623
1.642
1.642
1.628
1.623
1.637
1.647
1.623
1.623
1.647
1.657
1.657
1.652
1.667
1.686
1.667
1.652
1.667
1.681
1.676
1.662
1.662
1.676
1.672
1.647
1.657
1.676
1.676
1.667
1.667
1.691
1.696
1.676
1.672
1.691
1.696
1.686
1.676
1.691
1.711
1.701
1.686
1.706
1.725
1.72
1.706
1.706
1.72
1.711
1.686
1.701
1.72
1.72
1.701
1.701
1.716
1.725
1.701
1.701
1.725
1.735
1.73
1.725
1.735
1.75
1.73
1.706
1.716
1.725
1.711
1.696
1.701
1.72
1.711
1.686
1.696
1.711
1.711
1.701
1.691
1.706
1.716
1.691
1.686
1.701
1.696
1.676
1.662
1.667
1.672
1.652
1.637
1.652
1.662
1.647
1.632
1.632
1.652
1.642
1.618
1.623
1.647
1.642
1.628
1.623
1.637
1.642
1.618
1.618
1.637
1.642
1.637
1.632
1.642
1.652
1.632
1.618
1.632
1.647
1.647
1.637
1.642
1.667
1.662
1.637
1.642
1.657
1.647
1.632
1.632
1.647
1.652
1.628
1.623
1.647
1.657
1.652
1.647
1.657
1.672
1.652
1.637
1.652
1.662
1.647
1.632
1.628
1.647
1.642
1.623
1.637
1.657
1.657
1.652
1.652
1.672
1.672
1.642
1.637
1.652
1.657
1.647
1.642
1.652
1.672
1.657
1.647
1.667
1.681
1.676
1.667
1.676
1.696
1.691
1.672
1.691
1.716
1.72
1.711
1.706
1.72
1.716
1.691
1.691
1.711
1.716
1.706
1.701
1.711
1.72
1.696
1.672
1.676
1.681
1.662
1.642
1.637
1.647
1.637
1.618
1.628
1.642
1.637
1.628
1.628
1.642
1.647
1.623
1.618
1.637
1.637
1.623
1.613
1.623
1.637
1.618
1.603
1.608
1.608
1.584
1.554
1.549
1.559
1.564
1.569
1.632
1.73
1.833
1.935
2.043
2.165
2.248
2.278
2.297
2.307
2.278
2.204
2.111
2.033
1.955
1.848
1.755
1.706
1.662
1.618
1.588
1.588
1.613
1.618
1.613
1.632
1.657
1.652
1.632
1.618
1.623
1.618
1.588
1.584
1.608
1.613
1.603
1.598
1.608
1.623
1.603
1.593
1.613
1.628
1.623
1.613
1.623
1.642
1.632
1.613
1.623
1.642
1.637
1.628
1.623
1.642
1.642
1.623
1.623
1.642
1.642
1.632
1.623
1.632
1.647
1.632
1.623
1.642
1.657
1.652
1.642
1.647
1.667
1.662
1.642
1.652
1.676
1.676
1.667
1.667
1.681
1.681
1.657
1.652
1.672
1.672
1.667
1.662
1.676
1.691
1.672
1.662
1.686
1.696
1.691
1.681
1.686
1.706
1.701
1.681
1.696
1.716
1.716
1.706
1.706
1.72
1.725
1.701
1.696
1.711
1.711
1.701
1.696
1.706
1.72
1.706
1.696
1.716
1.73
1.72
1.701
1.701
1.711
1.696
1.676
1.681
1.701
1.696
1.691
1.691
1.706
1.711
1.681
1.676
1.691
1.691
1.676
1.662
1.672
1.686
1.662
1.647
1.667
1.672
1.662
1.647
1.652
1.667
1.652
1.628
1.637
1.652
1.647
1.632
1.628
1.642
1.642
1.623
1.628
1.652
1.652
1.642
1.637
1.652
1.662
1.642
1.623
1.637
1.642
1.632
1.618
1.623
1.637
1.632
1.618
1.637
1.657
1.652
1.642
1.637
1.657
1.652
1.628
1.623
1.637
1.642
1.637
1.632
1.647
1.662
1.642
1.632
1.652
1.662
1.652
1.637
1.637
1.647
1.632
1.613
1.623
1.642
1.642
1.632
1.632
1.652
1.657
1.637
1.637
1.652
1.652
1.637
1.628
1.642
1.662
1.642
1.632
1.647
1.657
1.647
1.628
1.632
1.647
1.632
1.613
1.623
1.647
1.647
1.642
1.642
1.657
1.657
1.632
1.632
1.652
1.657
1.647
1.637
1.652
1.667
1.647
1.642
1.657
1.667
1.657
1.642
1.647
1.667
1.662
1.647
1.667
1.691
1.696
1.696
1.701
1.72
1.72
1.691
1.686
1.711
1.711
1.706
1.701
1.716
1.73
1.701
1.686
1.696
1.701
1.681
1.657
1.652
1.662
1.647
1.623
1.632
1.642
1.637
1.623
1.618
1.632
1.637
1.613
1.618
1.637
1.637
1.632
1.628
1.642
1.652
1.623
1.603
1.603
1.593
1.564
1.535
1.525
1.54
1.54
1.554
1.623
1.72
1.818
1.926
2.048
2.18
2.273
2.317
2.346
2.366
2.331
2.263
2.17
2.087
1.999
1.882
1.784
1.725
1.676
1.628
1.593
1.588
1.608
1.603
1.598
1.623
1.652
1.647
1.632
1.623
1.628
1.618
1.588
1.588
1.613
1.613
1.603
1.593
1.608
1.623
1.603
1.598
1.623
1.637
1.628
1.618
1.623
1.637
1.623
1.598
1.613
1.632
1.628
1.613
1.613
1.628
1.632
1.603
1.608
1.628
1.632
1.623
1.618
1.632
1.647
1.623
1.613
1.632
1.642
1.637
1.628
1.632
1.652
1.642
1.632
1.652
1.667
1.662
1.647
1.647
1.667
1.672
1.652
1.657
1.676
1.676
1.672
1.662
1.681
1.691
1.667
1.657
1.676
1.686
1.676
1.667
1.672
1.696
1.686
1.672
1.691
1.711
1.706
1.696
1.696
1.711
1.701
1.676
1.676
1.696
1.696
1.691
1.691
1.706
1.716
1.696
1.681
1.696
1.701
1.681
1.667
1.667
1.681
1.672
1.662
1.681
1.701
1.701
1.691
1.691
1.711
1.706
1.681
1.681
1.696
1.696
1.681
1.672
1.686
1.696
1.672
1.662
1.676
1.681
1.667
1.647
1.647
1.662
1.642
1.623
1.632
1.647
1.642
1.632
1.632
1.652
1.647
1.628
1.628
1.642
1.642
1.628
1.623
1.632
1.642
1.618
1.613
1.632
1.647
1.642
1.632
1.642
1.657
1.642
1.623
1.637
1.647
1.637
1.628
1.628
1.652
1.657
1.632
1.637
1.662
1.667
1.657
1.637
1.642
1.642
1.623
1.613
1.632
1.642
1.637
1.632
1.647
1.667
1.652
1.632
1.642
1.652
1.642
1.632
1.632
1.647
1.642
1.623
1.628
1.652
1.652
1.642
1.632
1.647
1.652
1.628
1.618
1.637
1.642
1.632
1.623
1.632
1.647
1.632
1.618
1.637
1.652
1.647
1.637
1.632
1.647
1.642
1.618
1.623
1.637
1.637
1.632
1.628
1.647
1.662
1.642
1.637
1.652
1.657
1.642
1.628
1.632
1.647
1.632
1.618
1.637
1.652
1.642
1.632
1.632
1.657
1.652
1.623
1.628
1.647
1.647
1.642
1.632
1.652
1.662
1.642
1.632
1.647
1.657
1.647
1.637
1.642
1.662
1.647
1.632
1.652
1.672
1.667
1.657
1.657
1.672
1.667
1.642
1.652
1.681
1.691
1.691
1.696
1.72
1.73
1.711
1.706
1.725
1.73
1.72
1.711
1.716
1.73
1.716
1.696
1.706
1.716
1.696
1.676
1.667
1.676
1.667
1.637
1.637
1.652
1.652
1.642
1.637
1.652
1.657
1.637
1.628
1.647
1.652
1.642
1.632
1.642
1.652
1.628
1.603
1.603
1.603
1.579
1.549
1.54
1.554
1.564
1.569
1.623
1.716
1.813
1.921
2.048
2.19
2.292
2.336
2.366
2.385
2.366
2.297
2.209
2.116
2.033
1.921
1.813
1.75
1.706
1.657
1.618
1.603
1.618
1.618
1.608
1.628
1.662
1.667
1.647
1.632
1.637
1.637
1.608
1.603
1.618
1.628
1.613
1.603
1.613
1.632
1.618
1.608
1.623
1.637
1.623
1.608
1.603
1.628
1.628
1.613
1.623
1.652
1.652
1.647
1.642
1.657
1.662
1.637
1.632
1.647
1.652
1.642
1.632
1.647
1.662
1.652
1.632
1.652
1.667
1.662
1.652
1.652
1.667
1.662
1.637
1.642
1.662
1.662
1.657
1.657
1.676
1.686
1.667
1.667
1.686
1.696
1.686
1.672
1.681
1.691
1.667
1.647
1.667
1.696
1.696
1.696
1.706
1.73
1.73
1.711
1.716
1.73
1.72
1.701
1.691
1.711
1.725
1.706
1.706
1.72
1.725
1.711
1.696
1.706
1.716
1.696
1.681
1.696
1.716
1.711
1.696
1.701
1.716
1.716
1.691
1.696
1.711
1.706
1.691
1.686
1.701
1.706
1.681
1.681
1.701
1.711
1.701
1.691
1.696
1.711
1.691
1.676
1.696
1.706
1.701
1.686
1.681
1.691
1.676
1.647
1.652
1.672
1.667
1.657
1.652
1.672
1.681
1.652
1.642
1.657
1.662
1.652
1.642
1.652
1.667
1.647
1.632
1.647
1.662
1.657
1.642
1.647
1.672
1.672
1.652
1.657
1.672
1.667
1.652
1.642
1.652
1.662
1.642
1.637
1.657
1.662
1.652
1.642
1.652
1.667
1.647
1.632
1.647
1.667
1.667
1.657
1.662
1.681
1.672
1.647
1.647
1.662
1.657
1.642
1.632
1.652
1.657
1.632
1.632
1.652
1.662
1.652
1.642
1.647
1.667
1.652
1.642
1.662
1.676
1.672
1.662
1.662
1.676
1.667
1.637
1.637
1.657
1.657
1.647
1.647
1.662
1.676
1.647
1.642
1.662
1.667
1.652
1.637
1.642
1.657
1.637
1.623
1.642
1.657
1.652
1.642
1.647
1.672
1.667
1.647
1.657
1.672
1.667
1.652
1.647
1.657
1.662
1.632
1.628
1.647
1.652
1.647
1.642
1.657
1.672
1.657
1.647
1.662
1.672
1.662
1.652
1.657
1.676
1.667
1.642
1.652
1.672
1.672
1.662
1.662
1.681
1.691
1.667
1.672
1.691
1.701
1.691
1.681
1.696
1.716
1.701
1.696
1.72
1.745
1.74
1.725
1.725
1.745
1.735
1.716
1.725
1.745
1.745
1.735
1.73
1.745
1.745
1.711
1.701
1.711
1.706
1.686
1.667
1.672
1.681
1.662
1.642
1.652
1.662
1.657
1.647
1.657
1.676
1.676
1.652
1.662
1.681
1.676
1.662
1.657
1.667
1.657
1.613
1.588
1.593
1.584
1.564
1.559
1.593
1.647
1.696
1.774
1.906
2.038
2.141
2.229
2.302
2.361
2.366
2.326
2.292
2.239
2.141
2.023
1.921
1.843
1.764
1.676
1.628
1.623
1.618
1.618
1.623
1.652
1.681
1.676
1.662
1.676
1.681
1.662
1.642
1.642
1.652
1.642
1.618
1.623
1.642
1.637
1.628
1.623
1.642
1.652
1.637
1.637
1.662
1.667
1.652
1.642
1.647
1.662
1.637
1.623
1.642
1.652
1.652
1.647
1.657
1.681
1.672
1.647
1.662
1.681
1.676
1.662
1.657
1.672
1.676
1.652
1.652
1.676
1.686
1.681
1.676
1.696
1.711
1.696
1.681
1.696
1.711
1.706
1.691
1.701
1.716
1.711
1.691
1.701
1.716
1.711
1.701
1.696
1.716
1.725
1.701
1.701
1.725
1.73
1.725
1.711
1.725
1.745
1.725
1.716
1.735
1.75
1.745
1.735
1.74
1.755
1.745
1.72
1.725
1.74
1.735
1.72
1.716
1.725
1.725
1.696
1.701
1.725
1.73
1.72
1.711
1.72
1.735
1.711
1.701
1.711
1.72
1.711
1.696
1.701
1.72
1.716
1.696
1.706
1.725
1.716
1.706
1.701
1.716
1.72
1.691
1.686
1.706
1.706
1.686
1.681
1.686
1.701
1.676
1.657
1.662
1.672
1.662
1.647
1.647
1.667
1.652
1.632
1.642
1.662
1.662
1.657
1.657
1.676
1.676
1.652
1.652
1.676
1.681
1.672
1.662
1.672
1.686
1.662
1.647
1.662
1.672
1.667
1.647
1.657
1.676
1.672
1.657
1.667
1.686
1.686
1.672
1.667
1.681
1.681
1.652
1.647
1.667
1.667
1.657
1.652
1.667
1.681
1.662
1.652
1.672
1.686
1.672
1.662
1.662
1.676
1.667
1.647
1.662
1.681
1.676
1.662
1.662
1.681
1.681
1.657
1.657
1.672
1.676
1.662
1.647
1.657
1.667
1.642
1.632
1.647
1.657
1.647
1.637
1.647
1.667
1.662
1.642
1.652
1.672
1.667
1.652
1.647
1.652
1.652
1.628
1.632
1.652
1.657
1.652
1.657
1.676
1.696
1.681
1.672
1.691
1.701
1.681
1.667
1.672
1.691
1.686
1.667
1.686
1.716
1.716
1.711
1.711
1.725
1.725
1.701
1.696
1.72
1.725
1.716
1.711
1.725
1.74
1.716
1.696
1.706
1.706
1.691
1.672
1.672
1.681
1.662
1.628
1.632
1.652
1.647
1.642
1.637
1.657
1.662
1.642
1.642
1.662
1.667
1.652
1.647
1.657
1.667
1.642
1.618
1.618
1.613
1.584
1.549
1.544
1.569
1.584
1.613
1.691
1.808
1.926
2.028
2.131
2.234
2.287
2.297
2.297
2.287
2.239
2.155
2.058
1.975
1.896
1.789
1.701
1.662
1.632
1.603
1.593
1.603
1.637
1.647
1.642
1.657
1.667
1.652
1.632
1.623
1.637
1.642
1.623
1.632
1.657
1.657
1.647
1.632
1.637
1.642
1.618
1.603
1.618
1.632
1.632
1.628
1.637
1.662
1.657
1.642
1.657
1.667
1.662
1.647
1.642
1.657
1.662
1.637
1.642
1.667
1.672
1.662
1.647
1.662
1.672
1.652
1.637
1.657
1.676
1.672
1.667
1.672
1.691
1.681
1.662
1.676
1.701
1.696
1.686
1.691
1.711
1.711
1.681
1.681
1.701
1.706
1.701
1.696
1.711
1.725
1.706
1.691
1.711
1.72
1.716
1.706
1.716
1.74
1.73
1.716
1.725
1.74
1.73
1.711
1.711
1.725
1.73
1.711
1.716
1.74
1.745
1.735
1.72
1.73
1.735
1.706
1.696
1.706
1.716
1.711
1.701
1.706
1.725
1.716
1.696
1.711
1.73
1.725
1.711
1.701
1.711
1.711
1.686
1.691
1.711
1.711
1.696
1.686
1.691
1.701
1.676
1.662
1.676
1.686
1.676
1.667
1.672
1.686
1.667
1.642
1.647
1.662
1.652
1.642
1.637
1.657
1.662
1.637
1.637
1.657
1.657
1.647
1.642
1.657
1.667
1.647
1.637
1.652
1.662
1.652
1.642
1.647
1.662
1.652
1.637
1.652
1.672
1.672
1.662
1.662
1.676
1.676
1.657
1.657
1.676
1.676
1.667
1.657
1.667
1.681
1.657
1.647
1.662
1.676
1.662
1.647
1.652
1.667
1.662
1.642
1.657
1.672
1.667
1.652
1.652
1.672
1.667
1.637
1.642
1.662
1.667
1.652
1.647
1.662
1.676
1.657
1.642
1.662
1.667
1.662
1.652
1.657
1.672
1.657
1.637
1.652
1.672
1.662
1.652
1.652
1.667
1.667
1.637
1.642
1.657
1.657
1.642
1.637
1.647
1.657
1.632
1.623
1.647
1.662
1.662
1.657
1.667
1.696
1.686
1.672
1.681
1.696
1.676
1.662
1.662
1.691
1.701
1.686
1.696
1.725
1.73
1.72
1.711
1.725
1.73
1.706
1.701
1.725
1.745
1.74
1.73
1.73
1.74
1.716
1.686
1.691
1.696
1.681
1.662
1.657
1.667
1.662
1.637
1.637
1.652
1.657
1.652
1.647
1.662
1.667
1.642
1.632
1.652
1.662
1.652
1.637
1.637
1.647
1.628
1.593
1.584
1.579
1.559
1.549
1.564
1.608
1.657
1.701
1.794
1.931
2.048
2.146
2.229
2.302
2.346
2.326
2.297
2.263
2.199
2.097
1.989
1.891
1.823
1.735
1.667
1.637
1.628
1.608
1.598
1.613
1.647
1.662
1.642
1.647
1.662
1.652
1.628
1.613
1.618
1.623
1.598
1.593
1.618
1.632
1.628
1.628
1.637
1.652
1.637
1.618
1.632
1.647
1.642
1.628
1.628
1.647
1.652
1.628
1.628
1.647
1.642
1.632
1.623
1.642
1.652
1.637
1.632
1.657
1.672
1.667
1.662
1.672
1.686
1.667
1.647
1.657
1.672
1.662
1.652
1.647
1.662
1.662
1.637
1.647
1.676
1.686
1.686
1.681
1.701
1.716
1.696
1.686
1.701
1.706
1.691
1.676
1.686
1.706
1.691
1.676
1.696
1.716
1.711
1.701
1.701
1.725
1.73
1.711
1.716
1.735
1.735
1.72
1.711
1.725
1.735
1.706
1.701
1.716
1.725
1.711
1.696
1.701
1.716
1.701
1.681
1.701
1.716
1.711
1.701
1.701
1.716
1.706
1.676
1.676
1.701
1.701
1.696
1.696
1.711
1.72
1.701
1.691
1.706
1.706
1.691
1.676
1.681
1.696
1.676
1.657
1.667
1.681
1.672
1.657
1.657
1.672
1.662
1.628
1.632
1.652
1.652
1.642
1.632
1.647
1.657
1.632
1.623
1.637
1.647
1.637
1.628
1.642
1.667
1.657
1.637
1.652
1.667
1.657
1.642
1.637
1.652
1.647
1.628
1.637
1.657
1.657
1.642
1.632
1.647
1.657
1.637
1.632
1.657
1.667
1.657
1.647
1.657
1.676
1.662
1.642
1.652
1.667
1.657
1.647
1.652
1.676
1.672
1.642
1.642
1.657
1.662
1.652
1.647
1.657
1.662
1.637
1.628
1.647
1.652
1.642
1.628
1.637
1.652
1.637
1.618
1.632
1.652
1.652
1.642
1.642
1.662
1.657
1.637
1.647
1.662
1.662
1.647
1.642
1.657
1.667
1.637
1.632
1.652
1.662
1.652
1.647
1.652
1.672
1.657
1.642
1.652
1.667
1.662
1.652
1.657
1.676
1.681
1.672
1.686
1.716
1.716
1.706
1.696
1.706
1.711
1.691
1.686
1.711
1.73
1.735
1.73
1.74
1.755
1.73
1.701
1.696
1.696
1.672
1.647
1.642
1.657
1.652
1.623
1.623
1.642
1.642
1.632
1.628
1.642
1.652
1.632
1.623
1.642
1.652
1.642
1.628
1.628
1.628
1.598
1.564
1.569
1.574
1.559
1.544
1.554
1.603
1.657
1.72
1.833
1.975
2.102
2.204
2.283
2.351
2.38
2.346
2.302
2.248
2.165
2.053
1.935
1.843
1.769
1.681
1.608
1.588
1.584
1.579
1.588
1.613
1.657
1.672
1.652
1.647
1.652
1.632
1.603
1.584
1.598
1.608
1.588
1.588
1.608
1.623
1.618
1.608
1.613
1.628
1.618
1.613
1.632
1.652
1.642
1.632
1.632
1.647
1.642
1.618
1.628
1.647
1.647
1.642
1.637
1.657
1.662
1.637
1.628
1.642
1.647
1.637
1.628
1.642
1.662
1.647
1.632
1.652
1.672
1.667
1.652
1.657
1.672
1.662
1.637
1.647
1.672
1.676
1.672
1.676
1.696
1.711
1.691
1.686
1.706
1.716
1.706
1.696
1.706
1.72
1.706
1.691
1.706
1.72
1.711
1.696
1.696
1.711
1.711
1.691
1.696
1.716
1.72
1.716
1.711
1.73
1.735
1.711
1.706
1.725
1.73
1.716
1.706
1.716
1.73
1.716
1.701
1.716
1.73
1.716
1.696
1.696
1.711
1.701
1.676
1.681
1.701
1.701
1.701
1.701
1.725
1.735
1.711
1.701
1.716
1.72
1.706
1.691
1.691
1.701
1.681
1.662
1.672
1.681
1.672
1.652
1.647
1.662
1.657
1.632
1.637
1.657
1.657
1.642
1.637
1.652
1.657
1.632
1.628
1.647
1.652
1.642
1.637
1.647
1.667
1.647
1.632
1.647
1.662
1.652
1.642
1.637
1.657
1.657
1.637
1.647
1.672
1.672
1.667
1.662
1.676
1.681
1.652
1.642
1.662
1.662
1.657
1.642
1.652
1.672
1.652
1.637
1.652
1.672
1.667
1.652
1.647
1.662
1.652
1.628
1.637
1.662
1.667
1.657
1.652
1.672
1.676
1.652
1.642
1.652
1.657
1.647
1.632
1.637
1.657
1.642
1.628
1.642
1.662
1.652
1.647
1.647
1.672
1.667
1.637
1.642
1.657
1.657
1.647
1.642
1.657
1.667
1.647
1.652
1.676
1.681
1.672
1.662
1.667
1.681
1.662
1.652
1.672
1.696
1.706
1.706
1.72
1.745
1.74
1.711
1.716
1.73
1.725
1.711
1.711
1.725
1.735
1.711
1.701
1.716
1.716
1.701
1.681
1.681
1.691
1.662
1.642
1.647
1.657
1.647
1.637
1.637
1.657
1.657
1.637
1.642
1.657
1.657
1.637
1.628
1.642
1.647
1.623
1.613
1.623
1.618
1.593
1.559
1.549
1.549
1.53
1.525
1.579
1.652
1.73
1.833
1.965
2.111
2.224
2.287
2.351
2.4
2.395
2.346
2.278
2.204
2.102
1.96
1.848
1.769
1.696
1.628
1.579
1.579
1.598
1.598
1.608
1.642
1.672
1.667
1.647
1.637
1.637
1.623
1.588
1.598
1.618
1.623
1.618
1.613
1.628
1.632
1.613
1.613
1.632
1.637
1.632
1.623
1.628
1.637
1.623
1.608
1.623
1.637
1.632
1.628
1.632
1.657
1.652
1.628
1.632
1.647
1.647
1.632
1.628
1.647
1.657
1.637
1.637
1.657
1.667
1.657
1.642
1.652
1.662
1.652
1.642
1.657
1.676
1.672
1.662
1.672
1.691
1.686
1.662
1.672
1.696
1.696
1.691
1.686
1.706
1.711
1.686
1.686
1.706
1.711
1.706
1.696
1.706
1.72
1.701
1.686
1.701
1.716
1.706
1.696
1.701
1.725
1.72
1.701
1.711
1.725
1.725
1.716
1.706
1.72
1.73
1.706
1.701
1.72
1.72
1.711
1.701
1.711
1.725
1.706
1.696
1.711
1.725
1.725
1.72
1.725
1.74
1.735
1.701
1.706
1.716
1.711
1.696
1.686
1.701
1.701
1.676
1.672
1.686
1.691
1.676
1.662
1.672
1.681
1.662
1.647
1.667
1.681
1.672
1.652
1.652
1.667
1.657
1.632
1.632
1.652
1.652
1.652
1.652
1.672
1.676
1.657
1.647
1.662
1.662
1.647
1.632
1.642
1.657
1.642
1.632
1.647
1.657
1.652
1.642
1.647
1.662
1.657
1.637
1.642
1.662
1.662
1.652
1.642
1.657
1.667
1.647
1.642
1.662
1.672
1.662
1.652
1.662
1.672
1.652
1.632
1.652
1.667
1.657
1.642
1.647
1.667
1.657
1.637
1.642
1.657
1.652
1.642
1.637
1.652
1.662
1.632
1.628
1.647
1.652
1.642
1.628
1.637
1.647
1.628
1.613
1.637
1.657
1.657
1.652
1.657
1.676
1.676
1.652
1.662
1.681
1.686
1.676
1.676
1.691
1.701
1.681
1.691
1.716
1.72
1.711
1.701
1.716
1.735
1.72
1.711
1.725
1.74
1.73
1.716
1.716
1.73
1.716
1.686
1.691
1.706
1.696
1.676
1.667
1.676
1.676
1.637
1.628
1.642
1.647
1.642
1.637
1.647
1.667
1.647
1.632
1.642
1.657
1.642
1.632
1.632
1.652
1.637
1.608
1.603
1.608
1.584
1.559
1.544
1.564
1.584
1.598
1.657
1.774
1.896
2.023
2.141
2.258
2.346
2.38
2.38
2.375
2.341
2.258
2.146
2.033
1.935
1.828
1.716
1.657
1.628
1.598
1.579
1.579
1.613
1.642
1.632
1.642
1.662
1.657
1.632
1.613
1.618
1.632
1.618
1.608
1.623
1.632
1.623
1.613
1.613
1.628
1.623
1.603
1.618
1.637
1.637
1.623
1.618
1.632
1.637
1.613
1.608
1.628
1.637
1.632
1.623
1.637
1.652
1.642
1.628
1.647
1.657
1.647
1.637
1.642
1.662
1.657
1.637
1.652
1.676
1.676
1.672
1.667
1.691
1.696
1.672
1.667
1.686
1.691
1.676
1.667
1.676
1.691
1.672
1.652
1.672
1.686
1.686
1.681
1.691
1.711
1.706
1.686
1.696
1.716
1.716
1.706
1.706
1.72
1.725
1.701
1.701
1.72
1.725
1.716
1.706
1.72
1.73
1.711
1.696
1.716
1.73
1.72
1.706
1.706
1.725
1.72
1.696
1.706
1.725
1.72
1.706
1.701
1.716
1.72
1.696
1.696
1.72
1.725
1.72
1.711
1.716
1.73
1.706
1.691
1.701
1.716
1.706
1.696
1.701
1.72
1.711
1.686
1.686
1.696
1.686
1.667
1.662
1.672
1.676
1.652
1.652
1.672
1.667
1.652
1.632
1.637
1.647
1.628
1.623
1.647
1.667
1.667
1.662
1.667
1.686
1.667
1.637
1.632
1.647
1.637
1.628
1.628
1.652
1.667
1.647
1.647
1.672
1.676
1.662
1.652
1.662
1.672
1.652
1.637
1.652
1.667
1.662
1.657
1.662
1.681
1.672
1.647
1.652
1.667
1.657
1.637
1.628
1.642
1.652
1.632
1.632
1.662
1.672
1.662
1.657
1.662
1.672
1.642
1.628
1.642
1.652
1.647
1.642
1.652
1.676
1.667
1.647
1.657
1.672
1.662
1.647
1.637
1.652
1.657
1.628
1.628
1.647
1.652
1.642
1.637
1.657
1.676
1.662
1.657
1.681
1.696
1.686
1.672
1.676
1.691
1.686
1.672
1.691
1.72
1.725
1.725
1.725
1.74
1.745
1.716
1.711
1.73
1.735
1.73
1.725
1.74
1.75
1.73
1.706
1.716
1.711
1.696
1.672
1.672
1.686
1.672
1.642
1.642
1.657
1.657
1.647
1.642
1.662
1.662
1.637
1.632
1.647
1.652
1.642
1.628
1.637
1.647
1.628
1.613
1.623
1.618
1.593
1.564
1.554
1.564
1.559
1.564
1.628
1.72
1.818
1.916
2.033
2.151
2.234
2.268
2.297
2.317
2.297
2.234
2.155
2.077
1.994
1.882
1.779
1.72
1.672
1.623
1.588
1.588
1.618
1.628
1.623
1.647
1.667
1.662
1.642
1.628
1.637
1.637
1.613
1.618
1.637
1.642
1.628
1.618
1.623
1.637
1.618
1.618
1.637
1.647
1.642
1.632
1.642
1.662
1.652
1.632
1.642
1.662
1.657
1.647
1.642
1.657
1.662
1.637
1.637
1.662
1.667
1.657
1.647
1.662
1.672
1.652
1.642
1.662
1.676
1.667
1.657
1.662
1.676
1.667
1.647
1.667
1.691
1.691
1.686
1.691
1.711
1.711
1.691
1.691
1.711
1.711
1.701
1.691
1.711
1.725
1.706
1.696
1.716
1.725
1.72
1.716
1.73
1.75
1.74
1.716
1.72
1.74
1.735
1.725
1.72
1.74
1.75
1.725
1.73
1.745
1.75
1.735
1.72
1.73
1.74
1.72
1.711
1.73
1.74
1.73
1.716
1.72
1.74
1.73
1.711
1.716
1.73
1.72
1.706
1.706
1.725
1.73
1.706
1.711
1.73
1.735
1.725
1.716
1.72
1.725
1.701
1.686
1.701
1.711
1.691
1.672
1.672
1.681
1.667
1.647
1.657
1.676
1.676
1.667
1.657
1.672
1.667
1.642
1.642
1.657
1.662
1.657
1.652
1.667
1.676
1.657
1.647
1.662
1.672
1.662
1.652
1.662
1.681
1.672
1.647
1.652
1.672
1.672
1.667
1.667
1.681
1.681
1.657
1.657
1.672
1.672
1.652
1.642
1.652
1.672
1.652
1.652
1.672
1.681
1.672
1.662
1.667
1.681
1.672
1.647
1.657
1.672
1.667
1.652
1.652
1.667
1.672
1.647
1.647
1.667
1.672
1.662
1.657
1.667
1.681
1.657
1.647
1.667
1.681
1.676
1.667
1.676
1.691
1.681
1.662
1.672
1.691
1.686
1.676
1.676
1.701
1.711
1.691
1.701
1.725
1.73
1.725
1.72
1.73
1.74
1.716
1.706
1.725
1.735
1.72
1.706
1.711
1.725
1.711
1.686
1.686
1.691
1.681
1.667
1.657
1.667
1.662
1.632
1.628
1.647
1.652
1.642
1.637
1.647
1.662
1.647
1.637
1.652
1.662
1.657
1.652
1.652
1.667
1.647
1.618
1.618
1.623
1.603
1.584
1.579
1.603
1.628
1.642
1.706
1.799
1.882
1.95
2.009
2.082
2.131
2.131
2.126
2.126
2.097
2.033
1.96
1.896
1.843
1.76
1.681
1.642
1.628
1.608
1.588
1.593
1.623
1.637
1.628
1.642
1.667
1.676
1.662
1.647
1.652
1.662
1.637
1.628
1.642
1.652
1.647
1.637
1.652
1.672
1.662
1.642
1.652
1.667
1.657
1.647
1.647
1.662
1.662
1.637
1.637
1.662
1.662
1.652
1.647
1.667
1.681
1.667
1.657
1.676
1.681
1.667
1.652
1.662
1.681
1.672
1.657
1.676
1.696
1.696
1.686
1.686
1.701
1.701
1.681
1.681
1.701
1.701
1.691
1.681
1.696
1.706
1.691
1.686
1.711
1.73
1.73
1.72
1.73
1.75
1.73
1.711
1.716
1.73
1.725
1.716
1.716
1.74
1.74
1.716
1.716
1.735
1.74
1.73
1.725
1.735
1.745
1.72
1.711
1.735
1.75
1.74
1.725
1.73
1.745
1.735
1.716
1.725
1.735
1.73
1.716
1.716
1.73
1.73
1.711
1.72
1.74
1.74
1.73
1.72
1.73
1.735
1.711
1.691
1.706
1.716
1.706
1.696
1.701
1.711
1.696
1.672
1.676
1.691
1.676
1.657
1.657
1.672
1.667
1.642
1.647
1.672
1.672
1.662
1.652
1.662
1.667
1.642
1.628
1.647
1.657
1.647
1.632
1.642
1.662
1.652
1.632
1.642
1.667
1.672
1.667
1.672
1.691
1.696
1.667
1.667
1.681
1.676
1.657
1.647
1.662
1.672
1.652
1.647
1.662
1.676
1.672
1.662
1.667
1.681
1.667
1.647
1.662
1.681
1.676
1.667
1.662
1.676
1.676
1.647
1.652
1.667
1.672
1.667
1.657
1.676
1.686
1.662
1.652
1.672
1.691
1.681
1.676
1.686
1.701
1.691
1.672
1.686
1.706
1.706
1.691
1.691
1.711
1.711
1.686
1.691
1.716
1.725
1.72
1.711
1.73
1.74
1.72
1.706
1.716
1.711
1.686
1.667
1.662
1.672
1.657
1.637
1.642
1.657
1.647
1.632
1.632
1.642
1.647
1.623
1.623
1.647
1.647
1.637
1.628
1.637
1.642
1.618
1.603
1.623
1.637
1.632
1.618
1.623
1.628
1.608
1.584
1.593
1.623
1.637
1.672
1.735
1.833
1.911
1.96
2.023
2.092
2.111
2.107
2.082
2.063
2.028
1.945
1.872
1.823
1.769
1.706
1.647
1.618
1.613
1.593
1.579
1.603
1.637
1.642
1.642
1.647
1.662
1.657
1.623
1.623
1.642
1.642
1.628
1.618
1.628
1.637
1.613
1.608
1.632
1.642
1.637
1.628
1.632
1.647
1.632
1.618
1.632
1.657
1.662
1.657
1.662
1.676
1.676
1.652
1.647
1.662
1.657
1.642
1.637
1.652
1.667
1.647
1.642
1.667
1.681
1.676
1.667
1.676
1.696
1.681
1.657
1.667
1.686
1.681
1.672
1.676
1.696
1.691
1.667
1.672
1.691
1.701
1.691
1.686
1.701
1.711
1.686
1.686
1.706
1.72
1.716
1.706
1.716
1.735
1.73
1.72
1.74
1.76
1.75
1.73
1.73
1.74
1.735
1.706
1.701
1.716
1.72
1.716
1.711
1.73
1.745
1.72
1.716
1.73
1.735
1.72
1.706
1.706
1.72
1.706
1.686
1.701
1.716
1.706
1.701
1.701
1.72
1.72
1.696
1.696
1.716
1.716
1.701
1.691
1.696
1.701
1.672
1.662
1.681
1.686
1.676
1.662
1.672
1.686
1.667
1.647
1.647
1.657
1.652
1.632
1.628
1.642
1.642
1.618
1.623
1.642
1.647
1.637
1.628
1.637
1.652
1.632
1.628
1.642
1.652
1.642
1.628
1.632
1.652
1.637
1.618
1.628
1.647
1.647
1.642
1.647
1.662
1.662
1.637
1.637
1.652
1.652
1.637
1.632
1.647
1.662
1.642
1.637
1.662
1.672
1.657
1.647
1.652
1.667
1.647
1.628
1.637
1.657
1.652
1.642
1.642
1.662
1.662
1.637
1.637
1.657
1.652
1.642
1.632
1.652
1.662
1.642
1.637
1.657
1.662
1.657
1.647
1.657
1.676
1.667
1.652
1.672
1.696
1.696
1.691
1.696
1.716
1.716
1.691
1.696
1.716
1.716
1.701
1.691
1.701
1.701
1.672
1.662
1.676
1.676
1.657
1.637
1.642
1.647
1.628
1.608
1.623
1.642
1.642
1.632
1.632
1.647
1.642
1.613
1.613
1.628
1.623
1.608
1.603
1.623
1.637
1.618
1.608
1.623
1.623
1.603
1.579
1.569
1.574
1.549
1.535
1.564
1.623
1.686
1.764
1.872
1.999
2.097
2.151
2.209
2.263
2.268
2.229
2.17
2.111
2.033
1.926
1.828
1.764
1.706
1.642
1.593
1.579
1.593
1.584
1.584
1.618
1.642
1.642
1.628
1.618
1.628
1.618
1.584
1.588
1.608
1.613
1.608
1.603
1.618
1.628
1.603
1.593
1.613
1.618
1.608
1.603
1.613
1.632
1.618
1.603
1.623
1.642
1.642
1.632
1.632
1.647
1.642
1.618
1.628
1.647
1.647
1.632
1.628
1.642
1.652
1.632
1.623
1.637
1.647
1.637
1.628
1.637
1.657
1.647
1.637
1.652
1.672
1.662
1.652
1.657
1.681
1.676
1.652
1.662
1.681
1.681
1.672
1.662
1.676
1.686
1.672
1.667
1.691
1.706
1.706
1.701
1.711
1.725
1.706
1.681
1.696
1.711
1.706
1.696
1.696
1.72
1.716
1.691
1.696
1.72
1.72
1.711
1.701
1.716
1.725
1.701
1.686
1.701
1.701
1.691
1.681
1.686
1.706
1.691
1.676
1.696
1.711
1.701
1.691
1.691
1.706
1.701
1.672
1.676
1.696
1.691
1.676
1.672
1.681
1.686
1.662
1.652
1.667
1.672
1.657
1.637
1.642
1.657
1.637
1.618
1.632
1.647
1.642
1.628
1.628
1.642
1.632
1.608
1.608
1.623
1.623
1.613
1.618
1.632
1.647
1.623
1.618
1.637
1.642
1.632
1.623
1.632
1.652
1.637
1.623
1.642
1.662
1.657
1.642
1.637
1.652
1.647
1.628
1.632
1.652
1.652
1.637
1.632
1.647
1.657
1.632
1.632
1.652
1.662
1.647
1.637
1.647
1.662
1.647
1.628
1.642
1.662
1.652
1.642
1.642
1.657
1.652
1.623
1.628
1.652
1.652
1.642
1.637
1.652
1.657
1.632
1.623
1.642
1.642
1.632
1.628
1.637
1.657
1.642
1.632
1.642
1.657
1.647
1.637
1.642
1.662
1.657
1.637
1.647
1.667
1.667
1.662
1.657
1.672
1.681
1.657
1.662
1.681
1.696
1.691
1.686
1.701
1.716
1.706
1.691
1.706
1.725
1.72
1.706
1.706
1.716
1.711
1.681
1.681
1.686
1.681
1.662
1.657
1.662
1.662
1.632
1.623
1.637
1.642
1.628
1.618
1.628
1.642
1.628
1.613
1.632
1.652
1.647
1.632
1.637
1.652
1.647
1.618
1.618
1.623
1.608
1.579
1.559
1.559
1.559
1.54
1.554
1.613
1.681
1.769
1.877
2.009
2.141
2.224
2.278
2.336
2.361
2.336
2.278
2.204
2.131
2.028
1.911
1.828
1.769
1.706
1.647
1.608
1.608
1.613
1.603
1.618
1.647
1.667
1.657
1.642
1.642
1.647
1.623
1.598
1.613
1.628
1.618
1.608
1.613
1.628
1.623
1.598
1.608
1.632
1.632
1.623
1.613
1.628
1.632
1.613
1.608
1.628
1.637
1.632
1.623
1.637
1.652
1.637
1.618
1.628
1.642
1.637
1.628
1.628
1.647
1.647
1.628
1.637
1.662
1.657
1.647
1.637
1.657
1.667
1.647
1.642
1.662
1.672
1.667
1.662
1.672
1.691
1.672
1.652
1.667
1.681
1.676
1.672
1.672
1.691
1.691
1.672
1.681
1.701
1.696
1.686
1.681
1.701
1.716
1.696
1.696
1.716
1.725
1.716
1.711
1.72
1.735
1.716
1.701
1.716
1.735
1.725
1.716
1.711
1.72
1.716
1.696
1.706
1.725
1.725
1.716
1.706
1.716
1.72
1.686
1.676
1.686
1.691
1.686
1.676
1.691
1.716
1.696
1.681
1.696
1.711
1.701
1.686
1.686
1.701
1.691
1.667
1.667
1.686
1.676
1.662
1.657
1.667
1.672
1.642
1.632
1.647
1.652
1.647
1.637
1.647
1.662
1.642
1.628
1.637
1.652
1.647
1.632
1.628
1.642
1.642
1.623
1.632
1.652
1.647
1.637
1.632
1.642
1.647
1.623
1.623
1.642
1.647
1.637
1.637
1.652
1.672
1.657
1.642
1.662
1.676
1.667
1.657
1.657
1.672
1.662
1.637
1.642
1.657
1.647
1.632
1.628
1.647
1.657
1.637
1.632
1.657
1.662
1.657
1.647
1.652
1.667
1.652
1.637
1.652
1.667
1.657
1.642
1.647
1.662
1.657
1.632
1.642
1.667
1.667
1.652
1.652
1.662
1.672
1.647
1.642
1.662
1.667
1.657
1.647
1.657
1.672
1.657
1.642
1.657
1.672
1.662
1.647
1.647
1.662
1.652
1.628
1.637
1.652
1.652
1.642
1.642
1.657
1.662
1.642
1.637
1.662
1.672
1.657
1.637
1.642
1.657
1.637
1.623
1.642
1.662
1.657
1.652
1.657
1.676
1.667
1.642
1.647
1.662
1.662
1.647
1.642
1.662
1.662
1.642
1.637
1.657
1.662
1.657
1.647
1.662
1.681
1.667
1.652
1.672
1.691
1.686
1.676
1.681
1.696
1.686
1.662
1.667
1.686
1.686
1.681
1.681
1.711
1.725
1.706
1.706
1.725
1.73
1.72
1.701
1.706
1.72
1.706
1.696
1.716
1.73
1.72
1.711
1.711
1.72
1.706
1.672
1.667
1.676
1.662
1.647
1.642
1.657
1.667
1.642
1.642
1.662
1.672
1.667
1.662
1.676
1.686
1.662
1.637
1.652
1.657
1.642
1.618
1.603
1.608
1.584
1.549
1.554
1.579
1.603
1.637
1.706
1.818
1.945
2.048
2.165
2.283
2.351
2.38
2.375
2.361
2.322
2.234
2.131
2.048
1.97
1.872
1.779
1.72
1.686
1.642
1.598
1.598
1.618
1.632
1.632
1.632
1.647
1.647
1.618
1.613
1.637
1.642
1.642
1.637
1.652
1.667
1.647
1.623
1.628
1.637
1.628
1.613
1.618
1.637
1.632
1.613
1.623
1.647
1.652
1.642
1.642
1.662
1.667
1.642
1.637
1.657
1.662
1.652
1.642
1.652
1.667
1.652
1.632
1.652
1.667
1.662
1.652
1.657
1.681
1.676
1.652
1.662
1.676
1.672
1.662
1.657
1.672
1.681
1.662
1.662
1.681
1.691
1.686
1.681
1.691
1.711
1.691
1.676
1.691
1.706
1.701
1.691
1.696
1.716
1.716
1.696
1.706
1.725
1.725
1.711
1.711
1.725
1.735
1.711
1.711
1.73
1.735
1.725
1.716
1.725
1.735
1.711
1.696
1.716
1.725
1.716
1.706
1.711
1.73
1.725
1.701
1.706
1.72
1.711
1.696
1.686
1.701
1.711
1.686
1.686
1.711
1.72
1.72
1.711
1.72
1.735
1.716
1.696
1.711
1.72
1.701
1.681
1.676
1.691
1.676
1.657
1.667
1.686
1.681
1.672
1.672
1.691
1.686
1.657
1.647
1.667
1.667
1.647
1.637
1.647
1.662
1.647
1.637
1.652
1.672
1.667
1.657
1.657
1.672
1.662
1.642
1.642
1.662
1.657
1.647
1.652
1.667
1.672
1.647
1.647
1.667
1.676
1.667
1.657
1.662
1.667
1.642
1.628
1.647
1.667
1.662
1.657
1.662
1.686
1.676
1.657
1.662
1.672
1.662
1.647
1.642
1.652
1.662
1.642
1.642
1.662
1.672
1.657
1.652
1.662
1.676
1.657
1.637
1.647
1.657
1.647
1.637
1.647
1.672
1.662
1.642
1.657
1.676
1.676
1.667
1.662
1.676
1.676
1.647
1.642
1.657
1.662
1.652
1.642
1.657
1.676
1.657
1.647
1.662
1.667
1.657
1.642
1.647
1.662
1.652
1.637
1.652
1.676
1.676
1.667
1.662
1.672
1.672
1.642
1.637
1.652
1.652
1.642
1.632
1.642
1.662
1.642
1.632
1.652
1.672
1.667
1.657
1.662
1.681
1.672
1.647
1.657
1.676
1.667
1.652
1.647
1.662
1.667
1.642
1.642
1.662
1.662
1.647
1.642
1.657
1.676
1.662
1.652
1.667
1.676
1.672
1.657
1.657
1.672
1.657
1.637
1.647
1.667
1.667
1.657
1.657
1.672
1.676
1.647
1.647
1.662
1.667
1.662
1.657
1.667
1.681
1.662
1.652
1.667
1.676
1.667
1.652
1.657
1.672
1.667
1.652
1.672
1.691
1.691
1.681
1.681
1.701
1.711
1.691
1.696
1.725
1.735
1.73
1.725
1.73
1.74
1.72
1.711
1.73
1.745
1.74
1.73
1.74
1.76
1.745
1.716
1.716
1.72
1.706
1.691
1.686
1.696
1.696
1.662
1.657
1.672
1.672
1.657
1.647
1.662
1.676
1.662
1.647
1.662
1.672
1.662
1.647
1.647
1.662
1.642
1.608
1.603
1.603
1.584
1.559
1.549
1.574
1.603
1.628
1.706
1.833
1.965
2.092
2.204
2.317
2.395
2.41
2.4
2.39
2.341
2.248
2.141
2.043
1.96
1.857
1.76
1.706
1.676
1.637
1.608
1.608
1.632
1.652
1.642
1.652
1.672
1.667
1.642
1.623
1.623
1.632
1.618
1.613
1.637
1.652
1.642
1.632
1.632
1.647
1.632
1.613
1.623
1.647
1.642
1.632
1.637
1.662
1.667
1.642
1.642
1.657
1.657
1.647
1.637
1.647
1.657
1.642
1.632
1.647
1.662
1.652
1.642
1.647
1.667
1.657
1.637
1.647
1.672
1.672
1.667
1.667
1.686
1.691
1.667
1.667
1.686
1.686
1.676
1.667
1.681
1.701
1.686
1.681
1.706
1.72
1.716
1.696
1.701
1.72
1.711
1.691
1.696
1.711
1.711
1.706
1.711
1.73
1.735
1.711
1.711
1.73
1.73
1.72
1.711
1.72
1.73
1.711
1.701
1.72
1.735
1.73
1.72
1.72
1.735
1.725
1.701
1.706
1.725
1.72
1.706
1.706
1.73
1.735
1.711
1.711
1.725
1.725
1.711
1.701
1.716
1.73
1.711
1.701
1.72
1.73
1.72
1.706
1.701
1.711
1.691
1.667
1.676
1.691
1.691
1.681
1.676
1.696
1.696
1.672
1.672
1.691
1.691
1.676
1.657
1.667
1.676
1.657
1.642
1.662
1.676
1.672
1.662
1.672
1.686
1.676
1.647
1.652
1.662
1.657
1.647
1.647
1.667
1.672
1.652
1.652
1.676
1.681
1.672
1.662
1.672
1.676
1.657
1.642
1.657
1.667
1.662
1.647
1.657
1.676
1.667
1.642
1.652
1.667
1.657
1.642
1.642
1.662
1.672
1.652
1.652
1.672
1.676
1.667
1.662
1.676
1.686
1.667
1.657
1.681
1.696
1.686
1.667
1.672
1.686
1.672
1.642
1.642
1.657
1.657
1.647
1.652
1.672
1.676
1.652
1.657
1.676
1.681
1.667
1.657
1.662
1.672
1.647
1.642
1.657
1.667
1.657
1.642
1.647
1.662
1.652
1.632
1.642
1.667
1.667
1.662
1.662
1.681
1.686
1.662
1.662
1.681
1.681
1.662
1.652
1.662
1.667
1.647
1.628
1.642
1.652
1.647
1.637
1.642
1.662
1.652
1.637
1.652
1.676
1.672
1.662
1.657
1.672
1.667
1.642
1.642
1.667
1.672
1.667
1.662
1.676
1.691
1.672
1.652
1.662
1.672
1.667
1.662
1.672
1.691
1.681
1.662
1.676
1.701
1.701
1.691
1.691
1.711
1.711
1.691
1.696
1.716
1.72
1.711
1.706
1.72
1.74
1.725
1.711
1.73
1.745
1.74
1.73
1.735
1.755
1.745
1.725
1.735
1.75
1.735
1.711
1.696
1.706
1.701
1.667
1.667
1.681
1.681
1.672
1.662
1.676
1.686
1.662
1.652
1.672
1.681
1.672
1.657
1.662
1.681
1.667
1.637
1.642
1.647
1.628
1.598
1.584
1.588
1.584
1.564
1.584
1.637
1.691
1.76
1.852
1.975
2.087
2.151
2.209
2.278
2.312
2.302
2.258
2.204
2.141
2.038
1.926
1.843
1.779
1.706
1.642
1.613
1.618
1.628
1.618
1.637
1.672
1.686
1.676
1.657
1.657
1.662
1.637
1.623
1.642
1.657
1.652
1.637
1.642
1.657
1.642
1.628
1.642
1.667
1.667
1.657
1.657
1.672
1.676
1.647
1.647
1.667
1.672
1.657
1.652
1.667
1.681
1.657
1.642
1.662
1.667
1.657
1.647
1.657
1.676
1.667
1.652
1.667
1.691
1.691
1.686
1.686
1.701
1.706
1.681
1.681
1.706
1.706
1.696
1.686
1.696
1.706
1.686
1.672
1.696
1.711
1.706
1.701
1.72
1.745
1.74
1.72
1.735
1.755
1.75
1.735
1.73
1.745
1.74
1.716
1.711
1.73
1.735
1.735
1.735
1.755
1.769
1.75
1.745
1.764
1.769
1.76
1.74
1.745
1.76
1.75
1.725
1.73
1.74
1.735
1.72
1.72
1.735
1.735
1.711
1.711
1.73
1.735
1.72
1.716
1.725
1.735
1.72
1.711
1.73
1.74
1.735
1.72
1.725
1.74
1.725
1.701
1.711
1.725
1.711
1.691
1.686
1.701
1.691
1.662
1.662
1.681
1.681
1.672
1.662
1.672
1.681
1.662
1.647
1.667
1.676
1.667
1.652
1.657
1.676
1.662
1.642
1.652
1.667
1.662
1.647
1.647
1.672
1.676
1.657
1.662
1.676
1.676
1.667
1.657
1.667
1.681
1.657
1.647
1.667
1.681
1.672
1.662
1.672
1.691
1.686
1.667
1.676
1.691
1.691
1.681
1.681
1.696
1.691
1.667
1.672
1.696
1.696
1.676
1.662
1.672
1.681
1.662
1.652
1.672
1.681
1.676
1.667
1.672
1.686
1.676
1.652
1.657
1.667
1.662
1.652
1.657
1.676
1.676
1.652
1.657
1.676
1.681
1.672
1.662
1.672
1.681
1.657
1.642
1.662
1.672
1.662
1.652
1.667
1.681
1.667
1.642
1.652
1.672
1.667
1.657
1.657
1.672
1.676
1.657
1.662
1.691
1.691
1.676
1.672
1.691
1.701
1.676
1.667
1.686
1.706
1.696
1.691
1.711
1.735
1.73
1.716
1.725
1.745
1.74
1.73
1.725
1.74
1.74
1.716
1.72
1.735
1.735
1.72
1.701
1.706
1.711
1.681
1.667
1.676
1.681
1.667
1.657
1.657
1.672
1.662
1.642
1.657
1.676
1.676
1.662
1.662
1.681
1.676
1.652
1.647
1.662
1.662
1.647
1.632
1.637
1.642
1.613
1.593
1.598
1.598
1.584
1.584
1.613
1.676
1.73
1.794
1.896
2.004
2.072
2.121
2.16
2.19
2.185
2.131
2.087
2.043
1.97
1.887
1.804
1.75
1.701
1.637
1.598
1.603
1.618
1.623
1.632
1.657
1.686
1.672
1.647
1.652
1.657
1.642
1.628
1.623
1.642
1.642
1.618
1.618
1.637
1.642
1.637
1.632
1.647
1.657
1.632
1.623
1.642
1.652
1.642
1.628
1.637
1.652
1.642
1.623
1.637
1.657
1.657
1.647
1.647
1.672
1.672
1.652
1.657
1.676
1.672
1.662
1.657
1.672
1.686
1.672
1.662
1.681
1.696
1.686
1.676
1.681
1.696
1.686
1.662
1.676
1.696
1.696
1.681
1.686
1.706
1.706
1.681
1.686
1.706
1.706
1.696
1.686
1.701
1.716
1.696
1.696
1.72
1.735
1.73
1.72
1.73
1.755
1.74
1.72
1.73
1.745
1.74
1.725
1.72
1.735
1.74
1.716
1.72
1.745
1.75
1.74
1.735
1.75
1.755
1.725
1.716
1.73
1.74
1.725
1.711
1.72
1.735
1.72
1.696
1.706
1.716
1.706
1.696
1.691
1.706
1.706
1.681
1.686
1.711
1.716
1.701
1.691
1.701
1.701
1.667
1.647
1.657
1.657
1.642
1.632
1.637
1.657
1.647
1.628
1.637
1.652
1.642
1.628
1.623
1.642
1.642
1.618
1.618
1.637
1.642
1.632
1.628
1.642
1.652
1.628
1.618
1.632
1.637
1.628
1.618
1.632
1.657
1.647
1.637
1.657
1.681
1.676
1.662
1.657
1.667
1.657
1.632
1.632
1.647
1.652
1.642
1.637
1.652
1.662
1.637
1.628
1.647
1.662
1.657
1.647
1.657
1.667
1.652
1.628
1.642
1.657
1.652
1.642
1.642
1.662
1.667
1.637
1.637
1.657
1.657
1.647
1.637
1.652
1.667
1.652
1.642
1.657
1.662
1.652
1.637
1.642
1.657
1.637
1.618
1.628
1.642
1.637
1.628
1.632
1.657
1.657
1.632
1.632
1.647
1.647
1.637
1.628
1.637
1.647
1.632
1.632
1.657
1.676
1.672
1.667
1.672
1.686
1.667
1.647
1.662
1.681
1.681
1.676
1.676
1.701
1.706
1.686
1.696
1.716
1.716
1.706
1.706
1.725
1.735
1.716
1.701
1.716
1.72
1.701
1.681
1.676
1.686
1.662
1.637
1.642
1.652
1.642
1.628
1.628
1.642
1.642
1.618
1.623
1.642
1.642
1.632
1.618
1.628
1.637
1.618
1.613
1.637
1.647
1.632
1.608
1.598
1.593
1.564
1.53
1.535
1.559
1.584
1.632
1.72
1.852
1.97
2.067
2.17
2.268
2.322
2.331
2.317
2.292
2.234
2.126
2.023
1.95
1.867
1.779
1.696
1.647
1.628
1.593
1.569
1.584
1.613
1.623
1.623
1.628
1.642
1.637
1.603
1.598
1.618
1.623
1.618
1.613
1.628
1.637
1.613
1.593
1.608
1.613
1.603
1.588
1.598
1.618
1.613
1.598
1.613
1.632
1.632
1.628
1.628
1.642
1.642
1.613
1.618
1.637
1.642
1.632
1.623
1.637
1.647
1.628
1.623
1.642
1.652
1.642
1.628
1.637
1.657
1.647
1.632
1.652
1.672
1.662
1.652
1.657
1.681
1.681
1.657
1.662
1.681
1.681
1.672
1.662
1.672
1.681
1.657
1.652
1.672
1.691
1.691
1.691
1.706
1.725
1.711
1.691
1.701
1.716
1.706
1.686
1.686
1.706
1.711
1.696
1.706
1.73
1.73
1.72
1.711
1.725
1.73
1.706
1.696
1.716
1.72
1.711
1.701
1.706
1.72
1.711
1.691
1.701
1.72
1.716
1.706
1.711
1.725
1.725
1.696
1.701
1.711
1.711
1.691
1.676
1.686
1.691
1.662
1.647
1.672
1.681
1.672
1.662
1.667
1.681
1.657
1.637
1.637
1.652
1.647
1.632
1.637
1.657
1.657
1.632
1.637
1.652
1.647
1.637
1.623
1.632
1.637
1.613
1.603
1.618
1.623
1.623
1.618
1.632
1.652
1.642
1.628
1.642
1.657
1.647
1.632
1.628
1.642
1.637
1.613
1.623
1.642
1.642
1.632
1.628
1.642
1.652
1.632
1.628
1.652
1.662
1.652
1.642
1.647
1.667
1.652
1.628
1.642
1.657
1.647
1.637
1.632
1.647
1.647
1.623
1.637
1.662
1.667
1.662
1.657
1.667
1.676
1.647
1.628
1.637
1.642
1.632
1.618
1.628
1.642
1.637
1.623
1.642
1.657
1.652
1.647
1.647
1.667
1.667
1.642
1.642
1.662
1.657
1.647
1.642
1.657
1.662
1.642
1.637
1.662
1.672
1.667
1.657
1.672
1.686
1.672
1.652
1.662
1.681
1.681
1.676
1.681
1.706
1.711
1.691
1.696
1.716
1.72
1.706
1.696
1.706
1.716
1.696
1.696
1.716
1.725
1.711
1.696
1.701
1.706
1.681
1.647
1.647
1.652
1.637
1.623
1.618
1.642
1.647
1.632
1.642
1.662
1.662
1.652
1.642
1.652
1.652
1.623
1.608
1.628
1.632
1.623
1.603
1.598
1.598
1.564
1.53
1.535
1.554
1.564
1.593
1.662
1.779
1.901
2.009
2.136
2.258
2.331
2.356
2.356
2.346
2.307
2.214
2.116
2.038
1.95
1.852
1.769
1.711
1.676
1.628
1.588
1.598
1.618
1.623
1.623
1.632
1.652
1.642
1.603
1.598
1.613
1.608
1.598
1.598
1.613
1.628
1.608
1.598
1.618
1.623
1.618
1.608
1.618
1.632
1.613
1.598
1.613
1.628
1.623
1.613
1.618
1.632
1.632
1.603
1.613
1.632
1.632
1.623
1.618
1.632
1.647
1.632
1.628
1.647
1.662
1.652
1.642
1.652
1.667
1.652
1.632
1.642
1.657
1.652
1.647
1.652
1.667
1.667
1.647
1.657
1.681
1.681
1.672
1.672
1.686
1.696
1.672
1.672
1.691
1.701
1.696
1.686
1.696
1.711
1.701
1.686
1.696
1.716
1.711
1.706
1.711
1.73
1.73
1.706
1.711
1.725
1.72
1.711
1.701
1.711
1.716
1.696
1.691
1.716
1.725
1.716
1.701
1.711
1.725
1.706
1.686
1.696
1.711
1.701
1.696
1.701
1.72
1.72
1.696
1.696
1.72
1.72
1.701
1.691
1.701
1.706
1.672
1.662
1.681
1.691
1.681
1.667
1.676
1.686
1.672
1.647
1.657
1.667
1.657
1.637
1.632
1.647
1.642
1.618
1.623
1.642
1.642
1.632
1.632
1.647
1.657
1.637
1.628
1.647
1.652
1.642
1.628
1.632
1.647
1.637
1.618
1.637
1.652
1.652
1.642
1.642
1.662
1.657
1.632
1.637
1.657
1.657
1.647
1.637
1.652
1.662
1.637
1.632
1.647
1.657
1.652
1.642
1.657
1.672
1.662
1.642
1.652
1.662
1.652
1.642
1.657
1.672
1.672
1.647
1.647
1.667
1.662
1.652
1.642
1.657
1.667
1.647
1.642
1.667
1.672
1.657
1.642
1.642
1.652
1.632
1.613
1.628
1.647
1.647
1.637
1.647
1.662
1.657
1.628
1.628
1.642
1.642
1.637
1.637
1.662
1.676
1.662
1.662
1.681
1.686
1.672
1.647
1.647
1.657
1.642
1.628
1.647
1.672
1.672
1.667
1.676
1.696
1.696
1.667
1.672
1.696
1.701
1.691
1.686
1.701
1.711
1.696
1.691
1.716
1.73
1.72
1.716
1.73
1.75
1.735
1.716
1.725
1.74
1.73
1.711
1.706
1.716
1.701
1.667
1.667
1.676
1.672
1.652
1.637
1.647
1.657
1.637
1.628
1.652
1.662
1.652
1.642
1.642
1.657
1.642
1.623
1.628
1.637
1.618
1.588
1.569
1.569
1.544
1.52
1.544
1.593
1.647
1.72
1.828
1.975
2.116
2.209
2.292
2.37
2.405
2.395
2.351
2.302
2.229
2.116
1.994
1.911
1.838
1.755
1.681
1.637
1.628
1.618
1.593
1.608
1.642
1.652
1.642
1.637
1.642
1.642
1.608
1.593
1.608
1.623
1.618
1.613
1.623
1.637
1.623
1.608
1.618
1.632
1.628
1.623
1.628
1.647
1.642
1.618
1.623
1.642
1.642
1.637
1.637
1.652
1.662
1.637
1.632
1.647
1.657
1.642
1.632
1.637
1.657
1.647
1.628
1.642
1.657
1.652
1.637
1.642
1.667
1.667
1.652
1.662
1.681
1.681
1.672
1.662
1.676
1.686
1.667
1.667
1.696
1.706
1.701
1.691
1.701
1.72
1.701
1.681
1.696
1.716
1.711
1.701
1.701
1.716
1.706
1.686
1.696
1.72
1.725
1.72
1.716
1.73
1.74
1.716
1.706
1.725
1.73
1.725
1.72
1.735
1.755
1.74
1.725
1.735
1.745
1.735
1.72
1.72
1.735
1.725
1.701
1.706
1.72
1.716
1.706
1.701
1.716
1.72
1.696
1.696
1.716
1.725
1.72
1.706
1.711
1.72
1.701
1.681
1.686
1.696
1.681
1.667
1.667
1.681
1.681
1.657
1.657
1.676
1.667
1.652
1.647
1.662
1.667
1.642
1.632
1.652
1.657
1.647
1.637
1.647
1.662
1.652
1.637
1.652
1.667
1.657
1.642
1.642
1.652
1.652
1.632
1.642
1.662
1.672
1.672
1.672
1.686
1.696
1.667
1.657
1.667
1.672
1.657
1.642
1.652
1.667
1.657
1.642
1.662
1.681
1.676
1.667
1.662
1.676
1.662
1.637
1.642
1.662
1.662
1.652
1.642
1.657
1.667
1.647
1.642
1.657
1.662
1.657
1.652
1.667
1.686
1.672
1.652
1.667
1.681
1.672
1.652
1.647
1.667
1.657
1.637
1.642
1.672
1.672
1.667
1.667
1.681
1.686
1.652
1.637
1.652
1.657
1.647
1.632
1.637
1.652
1.642
1.632
1.657
1.681
1.681
1.676
1.681
1.701
1.696
1.672
1.676
1.691
1.686
1.681
1.681
1.706
1.72
1.701
1.706
1.73
1.74
1.735
1.725
1.735
1.755
1.74
1.725
1.735
1.75
1.74
1.72
1.711
1.72
1.706
1.676
1.676
1.686
1.676
1.662
1.652
1.657
1.657
1.632
1.628
1.652
1.662
1.657
1.652
1.662
1.676
1.662
1.642
1.657
1.667
1.662
1.642
1.642
1.652
1.632
1.588
1.579
1.584
1.574
1.564
1.574
1.623
1.686
1.74
1.833
1.965
2.082
2.17
2.243
2.302
2.346
2.326
2.278
2.234
2.165
2.058
1.945
1.843
1.774
1.696
1.623
1.603
1.608
1.613
1.618
1.637
1.672
1.691
1.667
1.657
1.662
1.662
1.637
1.623
1.632
1.652
1.637
1.623
1.637
1.652
1.642
1.632
1.632
1.652
1.647
1.628
1.632
1.652
1.652
1.647
1.647
1.662
1.662
1.637
1.628
1.647
1.652
1.642
1.637
1.652
1.672
1.662
1.647
1.662
1.676
1.667
1.657
1.652
1.672
1.672
1.652
1.667
1.696
1.701
1.691
1.681
1.696
1.696
1.672
1.667
1.681
1.686
1.681
1.676
1.691
1.716
1.711
1.696
1.716
1.73
1.725
1.716
1.716
1.73
1.725
1.696
1.701
1.72
1.725
1.72
1.72
1.74
1.755
1.735
1.735
1.76
1.76
1.75
1.735
1.74
1.755
1.73
1.711
1.72
1.735
1.73
1.725
1.73
1.755
1.75
1.725
1.735
1.75
1.745
1.73
1.725
1.74
1.745
1.72
1.716
1.735
1.735
1.72
1.711
1.716
1.725
1.701
1.681
1.701
1.711
1.701
1.691
1.686
1.701
1.691
1.667
1.672
1.691
1.686
1.672
1.662
1.676
1.681
1.652
1.642
1.662
1.667
1.657
1.642
1.652
1.667
1.657
1.642
1.662
1.676
1.672
1.662
1.667
1.686
1.672
1.642
1.647
1.667
1.662
1.652
1.647
1.667
1.681
1.662
1.662
1.681
1.691
1.681
1.667
1.672
1.691
1.676
1.662
1.676
1.691
1.681
1.667
1.667
1.681
1.667
1.642
1.647
1.672
1.672
1.667
1.667
1.686
1.691
1.667
1.657
1.672
1.676
1.662
1.652
1.657
1.672
1.657
1.642
1.662
1.681
1.681
1.672
1.676
1.696
1.691
1.667
1.667
1.681
1.676
1.667
1.662
1.681
1.691
1.667
1.667
1.691
1.701
1.691
1.681
1.691
1.711
1.696
1.686
1.711
1.73
1.725
1.716
1.716
1.735
1.73
1.706
1.716
1.735
1.735
1.716
1.711
1.72
1.725
1.696
1.696
1.711
1.706
1.691
1.676
1.681
1.696
1.681
1.657
1.672
1.681
1.672
1.662
1.662
1.681
1.672
1.647
1.652
1.672
1.672
1.662
1.647
1.657
1.657
1.618
1.608
1.623
1.623
1.608
1.588
1.593
1.613
1.603
1.608
1.662
1.735
1.804
1.872
1.95
2.028
2.072
2.087
2.107
2.121
2.097
2.043
1.984
1.931
1.867
1.774
1.706
1.676
1.642
1.608
1.593
1.613
1.642
1.642
1.642
1.672
1.686
1.672
1.647
1.642
1.657
1.652
1.632
1.637
1.662
1.662
1.647
1.637
1.652
1.662
1.637
1.637
1.657
1.662
1.652
1.642
1.652
1.667
1.647
1.628
1.637
1.657
1.657
1.652
1.662
1.681
1.672
1.652
1.662
1.681
1.676
1.662
1.652
1.662
1.672
1.647
1.642
1.672
1.681
1.676
1.672
1.686
1.711
1.696
1.686
1.701
1.716
1.706
1.696
1.706
1.72
1.711
1.686
1.696
1.711
1.711
1.701
1.696
1.716
1.72
1.701
1.701
1.725
1.735
1.725
1.72
1.735
1.75
1.735
1.72
1.74
1.75
1.745
1.735
1.74
1.755
1.75
1.73
1.745
1.764
1.76
1.745
1.74
1.745
1.75
1.716
1.711
1.725
1.735
1.73
1.725
1.735
1.75
1.73
1.72
1.73
1.74
1.725
1.711
1.706
1.72
1.711
1.686
1.686
1.701
1.691
1.681
1.676
1.696
1.696
1.672
1.667
1.686
1.691
1.676
1.657
1.662
1.667
1.647
1.637
1.652
1.667
1.662
1.652
1.652
1.667
1.657
1.632
1.637
1.647
1.642
1.628
1.623
1.642
1.652
1.628
1.628
1.652
1.657
1.647
1.637
1.647
1.662
1.637
1.623
1.637
1.652
1.647
1.637
1.642
1.662
1.662
1.642
1.647
1.667
1.662
1.647
1.642
1.657
1.662
1.637
1.637
1.662
1.667
1.657
1.647
1.662
1.676
1.657
1.642
1.652
1.667
1.657
1.642
1.642
1.662
1.652
1.632
1.637
1.657
1.657
1.642
1.637
1.657
1.667
1.647
1.647
1.672
1.681
1.676
1.667
1.681
1.696
1.676
1.657
1.672
1.691
1.686
1.681
1.686
1.706
1.696
1.676
1.686
1.711
1.711
1.706
1.701
1.72
1.725
1.696
1.681
1.691
1.681
1.657
1.637
1.642
1.647
1.623
1.608
1.628
1.642
1.642
1.628
1.632
1.652
1.642
1.618
1.623
1.637
1.632
1.623
1.623
1.637
1.642
1.618
1.608
1.623
1.623
1.598
1.579
1.569
1.574
1.549
1.549
1.588
1.637
1.691
1.75
1.848
1.965
2.048
2.092
2.155
2.204
2.209
2.185
2.141
2.092
2.019
1.906
1.818
1.76
1.701
1.637
1.593
1.588
1.603
1.593
1.598
1.628
1.652
1.647
1.632
1.628
1.637
1.623
1.593
1.598
1.618
1.618
1.608
1.603
1.623
1.623
1.603
1.598
1.618
1.623
1.613
1.608
1.623
1.642
1.623
1.608
1.628
1.642
1.637
1.623
1.623
1.637
1.632
1.613
1.623
1.647
1.647
1.637
1.632
1.647
1.652
1.628
1.623
1.642
1.647
1.642
1.637
1.652
1.672
1.657
1.642
1.657
1.667
1.662
1.652
1.657
1.676
1.667
1.647
1.662
1.686
1.686
1.676
1.672
1.691
1.696
1.676
1.676
1.701
1.706
1.691
1.681
1.691
1.711
1.691
1.681
1.701
1.716
1.711
1.696
1.701
1.716
1.711
1.691
1.701
1.72
1.716
1.711
1.711
1.73
1.73
1.706
1.696
1.706
1.706
1.696
1.686
1.701
1.72
1.706
1.691
1.711
1.72
1.716
1.696
1.691
1.701
1.686
1.657
1.657
1.676
1.672
1.657
1.652
1.667
1.667
1.642
1.642
1.657
1.657
1.652
1.642
1.657
1.672
1.652
1.642
1.652
1.657
1.642
1.618
1.613
1.628
1.618
1.593
1.608
1.632
1.642
1.637
1.637
1.657
1.657
1.632
1.628
1.642
1.642
1.628
1.618
1.628
1.642
1.623
1.613
1.632
1.652
1.652
1.642
1.647
1.667
1.657
1.632
1.637
1.647
1.642
1.628
1.623
1.642
1.652
1.628
1.623
1.642
1.652
1.647
1.637
1.647
1.657
1.642
1.632
1.652
1.667
1.662
1.642
1.647
1.662
1.647
1.623
1.632
1.652
1.647
1.642
1.642
1.662
1.672
1.642
1.642
1.662
1.667
1.662
1.652
1.667
1.681
1.662
1.652
1.667
1.672
1.667
1.652
1.662
1.686
1.686
1.676
1.701
1.72
1.72
1.711
1.701
1.716
1.716
1.686
1.681
1.706
1.711
1.701
1.691
1.701
1.706
1.681
1.652
1.652
1.657
1.642
1.628
1.632
1.647
1.637
1.618
1.632
1.657
1.652
1.642
1.632
1.647
1.647
1.618
1.613
1.632
1.637
1.618
1.598
1.598
1.603
1.574
1.549
1.554
1.559
1.554
1.569
1.618
1.706
1.789
1.877
1.999
2.116
2.195
2.239
2.268
2.278
2.253
2.17
2.097
2.033
1.96
1.877
1.794
1.74
1.701
1.642
1.603
1.603
1.613
1.608
1.608
1.618
1.642
1.632
1.608
1.618
1.628
1.618
1.603
1.603
1.623
1.628
1.608
1.608
1.623
1.623
1.608
1.593
1.603
1.618
1.603
1.593
1.613
1.632
1.628
1.618
1.628
1.642
1.632
1.608
1.613
1.628
1.623
1.618
1.628
1.647
1.652
1.632
1.628
1.652
1.657
1.647
1.637
1.642
1.657
1.637
1.628
1.647
1.662
1.657
1.647
1.657
1.672
1.662
1.637
1.647
1.662
1.662
1.652
1.652
1.681
1.681
1.662
1.657
1.681
1.686
1.681
1.672
1.681
1.696
1.681
1.672
1.696
1.716
1.706
1.696
1.701
1.72
1.706
1.681
1.696
1.711
1.701
1.696
1.691
1.711
1.716
1.691
1.691
1.706
1.706
1.696
1.691
1.701
1.716
1.691
1.676
1.691
1.701
1.691
1.676
1.681
1.696
1.686
1.662
1.676
1.691
1.686
1.676
1.672
1.686
1.681
1.652
1.642
1.662
1.662
1.647
1.642
1.647
1.662
1.642
1.632
1.647
1.667
1.652
1.637
1.642
1.662
1.652
1.628
1.637
1.647
1.642
1.628
1.623
1.637
1.637
1.613
1.618
1.637
1.642
1.632
1.628
1.637
1.652
1.632
1.623
1.637
1.642
1.632
1.623
1.628
1.642
1.628
1.603
1.613
1.632
1.637
1.632
1.632
1.652
1.657
1.632
1.637
1.662
1.667
1.657
1.647
1.657
1.672
1.652
1.637
1.647
1.652
1.642
1.628
1.632
1.647
1.637
1.618
1.628
1.652
1.647
1.642
1.637
1.652
1.657
1.632
1.628
1.647
1.647
1.637
1.628
1.642
1.657
1.647
1.632
1.657
1.667
1.652
1.642
1.647
1.672
1.667
1.647
1.662
1.686
1.691
1.686
1.691
1.716
1.72
1.696
1.701
1.725
1.725
1.711
1.701
1.711
1.72
1.701
1.691
1.711
1.72
1.711
1.691
1.686
1.691
1.667
1.637
1.642
1.657
1.657
1.642
1.642
1.657
1.652
1.623
1.618
1.637
1.637
1.623
1.613
1.628
1.647
1.628
1.623
1.647
1.662
1.652
1.632
1.628
1.628
1.598
1.554
1.544
1.549
1.549
1.554
1.593
1.676
1.769
1.857
1.975
2.102
2.195
2.248
2.278
2.302
2.297
2.234
2.151
2.087
2.009
1.911
1.818
1.745
1.696
1.637
1.584
1.579
1.603
1.613
1.618
1.632
1.662
1.667
1.637
1.628
1.632
1.628
1.613
1.603
1.618
1.632
1.613
1.598
1.608
1.618
1.608
1.598
1.608
1.628
1.628
1.613
1.628
1.647
1.637
1.623
1.613
1.628
1.632
1.608
1.613
1.637
1.642
1.637
1.632
1.642
1.647
1.623
1.613
1.637
1.652
1.647
1.642
1.652
1.672
1.662
1.642
1.652
1.667
1.662
1.657
1.652
1.667
1.667
1.637
1.637
1.657
1.667
1.662
1.662
1.686
1.701
1.686
1.667
1.676
1.686
1.676
1.662
1.672
1.691
1.691
1.676
1.696
1.716
1.711
1.701
1.686
1.696
1.696
1.676
1.681
1.706
1.716
1.711
1.711
1.73
1.74
1.72
1.701
1.711
1.716
1.701
1.681
1.681
1.696
1.681
1.667
1.681
1.701
1.701
1.696
1.696
1.716
1.716
1.691
1.686
1.696
1.691
1.676
1.667
1.676
1.691
1.672
1.662
1.681
1.691
1.686
1.672
1.676
1.691
1.672
1.647
1.652
1.662
1.657
1.647
1.647
1.662
1.662
1.637
1.637
1.652
1.657
1.642
1.632
1.637
1.652
1.632
1.623
1.642
1.657
1.652
1.637
1.642
1.662
1.652
1.632
1.642
1.662
1.662
1.652
1.652
1.672
1.672
1.642
1.642
1.652
1.652
1.632
1.623
1.642
1.657
1.637
1.628
1.652
1.667
1.662
1.657
1.662
1.681
1.662
1.642
1.647
1.667
1.657
1.642
1.637
1.652
1.657
1.637
1.637
1.662
1.667
1.657
1.647
1.662
1.672
1.652
1.642
1.662
1.676
1.662
1.652
1.657
1.667
1.652
1.623
1.632
1.652
1.657
1.652
1.657
1.676
1.676
1.657
1.662
1.686
1.686
1.676
1.667
1.681
1.696
1.672
1.662
1.681
1.696
1.686
1.676
1.691
1.711
1.706
1.691
1.706
1.725
1.725
1.711
1.716
1.74
1.75
1.73
1.73
1.74
1.745
1.73
1.711
1.716
1.716
1.681
1.662
1.681
1.691
1.672
1.657
1.657
1.672
1.657
1.642
1.652
1.667
1.657
1.647
1.647
1.667
1.662
1.637
1.637
1.662
1.667
1.657
1.642
1.642
1.637
1.598
1.574
1.579
1.588
1.584
1.598
1.652
1.745
1.828
1.911
2.023
2.126
2.19
2.224
2.239
2.243
2.209
2.126
2.053
1.984
1.906
1.818
1.745
1.706
1.676
1.628
1.608
1.628
1.642
1.647
1.647
1.662
1.686
1.672
1.647
1.657
1.676
1.667
1.657
1.652
1.667
1.662
1.632
1.632
1.652
1.657
1.647
1.647
1.662
1.672
1.647
1.642
1.662
1.681
1.676
1.662
1.667
1.681
1.657
1.637
1.647
1.662
1.662
1.657
1.662
1.691
1.696
1.676
1.676
1.686
1.681
1.662
1.652
1.676
1.696
1.681
1.676
1.701
1.711
1.696
1.681
1.686
1.701
1.686
1.672
1.686
1.716
1.72
1.716
1.716
1.735
1.74
1.711
1.716
1.735
1.735
1.72
1.711
1.72
1.725
1.696
1.681
1.706
1.725
1.73
1.735
1.75
1.774
1.769
1.75
1.755
1.764
1.755
1.74
1.74
1.755
1.745
1.716
1.72
1.735
1.735
1.72
1.711
1.725
1.74
1.72
1.711
1.735
1.75
1.735
1.72
1.72
1.73
1.716
1.696
1.706
1.72
1.72
1.711
1.711
1.725
1.725
1.696
1.696
1.706
1.701
1.681
1.667
1.676
1.681
1.662
1.657
1.681
1.696
1.696
1.691
1.696
1.711
1.686
1.657
1.657
1.667
1.652
1.637
1.637
1.657
1.662
1.647
1.652
1.672
1.676
1.662
1.652
1.662
1.672
1.652
1.647
1.667
1.676
1.672
1.657
1.672
1.691
1.681
1.662
1.667
1.676
1.672
1.662
1.672
1.691
1.691
1.667
1.667
1.686
1.686
1.672
1.662
1.672
1.676
1.657
1.647
1.667
1.686
1.676
1.672
1.676
1.696
1.686
1.667
1.686
1.701
1.696
1.681
1.676
1.691
1.681
1.652
1.652
1.672
1.681
1.681
1.681
1.701
1.72
1.696
1.681
1.696
1.701
1.691
1.686
1.701
1.725
1.72
1.716
1.73
1.75
1.735
1.716
1.711
1.725
1.72
1.696
1.696
1.711
1.711
1.706
1.696
1.706
1.706
1.676
1.662
1.676
1.681
1.667
1.647
1.647
1.667
1.652
1.632
1.647
1.662
1.662
1.652
1.642
1.652
1.652
1.623
1.623
1.637
1.632
1.613
1.603
1.618
1.628
1.603
1.593
1.608
1.613
1.608
1.613
1.662
1.74
1.799
1.862
1.955
2.043
2.102
2.131
2.146
2.151
2.121
2.048
1.984
1.931
1.862
1.779
1.706
1.662
1.632
1.584
1.564
1.584
1.608
1.618
1.628
1.647
1.672
1.657
1.632
1.642
1.647
1.637
1.623
1.623
1.637
1.632
1.613
1.623
1.647
1.647
1.637
1.632
1.647
1.667
1.647
1.637
1.652
1.662
1.657
1.647
1.652
1.667
1.647
1.623
1.632
1.647
1.637
1.628
1.628
1.652
1.652
1.637
1.647
1.672
1.681
1.676
1.672
1.686
1.691
1.662
1.652
1.672
1.681
1.676
1.672
1.681
1.696
1.681
1.667
1.681
1.696
1.686
1.676
1.681
1.706
1.706
1.686
1.696
1.716
1.72
1.711
1.706
1.716
1.725
1.701
1.691
1.711
1.725
1.72
1.716
1.73
1.745
1.735
1.716
1.725
1.735
1.725
1.711
1.716
1.74
1.74
1.716
1.72
1.745
1.74
1.725
1.716
1.72
1.73
1.706
1.696
1.716
1.725
1.706
1.691
1.691
1.706
1.686
1.672
1.686
1.711
1.711
1.701
1.701
1.72
1.711
1.676
1.672
1.686
1.686
1.672
1.657
1.672
1.676
1.652
1.647
1.662
1.667
1.652
1.637
1.642
1.662
1.642
1.623
1.637
1.652
1.652
1.642
1.642
1.667
1.667
1.637
1.637
1.652
1.647
1.632
1.623
1.637
1.652
1.632
1.632
1.657
1.672
1.667
1.657
1.667
1.681
1.662
1.642
1.647
1.662
1.657
1.642
1.642
1.662
1.667
1.642
1.652
1.676
1.681
1.667
1.657
1.662
1.657
1.628
1.618
1.637
1.657
1.662
1.662
1.676
1.696
1.676
1.652
1.662
1.667
1.657
1.637
1.637
1.657
1.662
1.642
1.652
1.676
1.676
1.662
1.652
1.662
1.672
1.647
1.637
1.652
1.662
1.657
1.652
1.662
1.681
1.667
1.647
1.662
1.681
1.676
1.662
1.662
1.672
1.667
1.647
1.652
1.681
1.691
1.691
1.696
1.716
1.725
1.706
1.691
1.701
1.701
1.696
1.691
1.711
1.735
1.725
1.706
1.716
1.73
1.711
1.691
1.681
1.691
1.686
1.657
1.662
1.681
1.676
1.657
1.642
1.647
1.657
1.628
1.623
1.642
1.657
1.652
1.642
1.647
1.662
1.637
1.613
1.623
1.637
1.623
1.603
1.593
1.598
1.584
1.559
1.559
1.584
1.608
1.642
1.706
1.818
1.935
2.023
2.111
2.199
2.248
2.258
2.234
2.204
2.16
2.067
1.97
1.901
1.838
1.764
1.696
1.647
1.637
1.613
1.584
1.593
1.623
1.637
1.637
1.632
1.647
1.647
1.618
1.613
1.632
1.637
1.628
1.618
1.623
1.642
1.628
1.613
1.623
1.642
1.637
1.628
1.623
1.642
1.637
1.618
1.623
1.642
1.647
1.637
1.628
1.642
1.647
1.618
1.608
1.632
1.642
1.637
1.637
1.652
1.672
1.657
1.637
1.642
1.652
1.642
1.637
1.642
1.662
1.657
1.637
1.642
1.667
1.672
1.657
1.652
1.667
1.676
1.657
1.652
1.676
1.686
1.672
1.652
1.657
1.672
1.662
1.657
1.676
1.701
1.701
1.696
1.701
1.72
1.716
1.691
1.686
1.701
1.701
1.696
1.706
1.73
1.74
1.716
1.711
1.73
1.73
1.716
1.696
1.696
1.711
1.691
1.676
1.691
1.711
1.706
1.701
1.701
1.72
1.716
1.691
1.686
1.696
1.691
1.681
1.681
1.701
1.711
1.691
1.691
1.711
1.72
1.706
1.691
1.691
1.696
1.676
1.657
1.667
1.676
1.667
1.652
1.652
1.667
1.662
1.632
1.642
1.657
1.652
1.637
1.628
1.642
1.652
1.637
1.637
1.667
1.681
1.681
1.667
1.667
1.676
1.647
1.618
1.623
1.637
1.632
1.628
1.632
1.662
1.662
1.642
1.647
1.667
1.667
1.657
1.647
1.657
1.662
1.637
1.632
1.652
1.662
1.652
1.642
1.647
1.667
1.652
1.637
1.657
1.672
1.667
1.652
1.657
1.681
1.676
1.652
1.657
1.676
1.672
1.657
1.652
1.662
1.667
1.637
1.637
1.662
1.676
1.667
1.652
1.662
1.676
1.662
1.647
1.662
1.676
1.662
1.647
1.647
1.662
1.652
1.623
1.628
1.647
1.647
1.642
1.642
1.667
1.681
1.657
1.647
1.662
1.662
1.652
1.647
1.662
1.681
1.672
1.657
1.676
1.691
1.681
1.667
1.667
1.686
1.686
1.672
1.686
1.716
1.72
1.716
1.716
1.73
1.735
1.706
1.691
1.706
1.711
1.706
1.696
1.706
1.72
1.696
1.676
1.691
1.701
1.686
1.667
1.662
1.676
1.667
1.637
1.637
1.652
1.652
1.642
1.637
1.652
1.662
1.642
1.632
1.652
1.652
1.642
1.628
1.632
1.637
1.613
1.584
1.588
1.588
1.574
1.554
1.554
1.588
1.613
1.637
1.72
1.848
1.96
2.063
2.155
2.243
2.297
2.292
2.268
2.248
2.185
2.092
1.989
1.911
1.848
1.755
1.681
1.652
1.632
1.603
1.584
1.588
1.613
1.628
1.618
1.632
1.652
1.652
1.632
1.623
1.632
1.637
1.618
1.608
1.623
1.628
1.613
1.608
1.623
1.637
1.628
1.618
1.637
1.652
1.642
1.628
1.632
1.647
1.642
1.613
1.618
1.637
1.637
1.632
1.628
1.637
1.642
1.618
1.613
1.632
1.647
1.647
1.642
1.652
1.672
1.657
1.642
1.652
1.662
1.652
1.642
1.647
1.662
1.662
1.647
1.657
1.681
1.681
1.676
1.672
1.686
1.696
1.672
1.667
1.681
1.686
1.681
1.672
1.681
1.701
1.686
1.672
1.686
1.701
1.696
1.691
1.691
1.711
1.711
1.686
1.701
1.72
1.716
1.706
1.701
1.716
1.72
1.696
1.691
1.706
1.711
1.701
1.686
1.696
1.716
1.701
1.686
1.706
1.72
1.711
1.696
1.696
1.706
1.696
1.672
1.681
1.706
1.706
1.691
1.691
1.701
1.706
1.672
1.662
1.686
1.696
1.686
1.672
1.676
1.686
1.662
1.647
1.652
1.662
1.642
1.623
1.623
1.647
1.652
1.637
1.652
1.672
1.672
1.657
1.652
1.662
1.667
1.637
1.628
1.647
1.652
1.642
1.637
1.652
1.672
1.652
1.642
1.657
1.672
1.667
1.652
1.652
1.662
1.652
1.623
1.628
1.647
1.647
1.642
1.642
1.667
1.672
1.647
1.642
1.662
1.672
1.662
1.657
1.662
1.681
1.667
1.657
1.672
1.681
1.667
1.652
1.652
1.672
1.662
1.637
1.647
1.667
1.667
1.657
1.657
1.667
1.672
1.642
1.642
1.662
1.667
1.657
1.647
1.657
1.676
1.662
1.642
1.652
1.662
1.652
1.637
1.642
1.657
1.647
1.628
1.642
1.667
1.672
1.662
1.662
1.676
1.681
1.652
1.647
1.667
1.672
1.657
1.642
1.652
1.667
1.657
1.647
1.667
1.691
1.686
1.681
1.681
1.696
1.686
1.662
1.672
1.691
1.696
1.691
1.691
1.716
1.735
1.716
1.711
1.725
1.73
1.716
1.711
1.725
1.745
1.735
1.725
1.735
1.74
1.72
1.696
1.681
1.686
1.667
1.632
1.637
1.657
1.657
1.647
1.652
1.672
1.676
1.652
1.647
1.662
1.657
1.642
1.628
1.637
1.647
1.632
1.618
1.628
1.637
1.613
1.584
1.564
1.564
1.559
1.554
1.598
1.676
1.764
1.862
1.979
2.111
2.209
2.253
2.287
2.312
2.302
2.248
2.18
2.107
2.028
1.916
1.813
1.755
1.706
1.652
1.613
1.598
1.618
1.623
1.618
1.647
1.681
1.676
1.662
1.647
1.652
1.647
1.618
1.618
1.637
1.642
1.628
1.618
1.632
1.652
1.632
1.618
1.632
1.647
1.637
1.628
1.632
1.642
1.632
1.613
1.632
1.657
1.662
1.652
1.652
1.667
1.667
1.632
1.623
1.637
1.642
1.632
1.623
1.637
1.657
1.642
1.637
1.662
1.681
1.676
1.667
1.672
1.686
1.676
1.647
1.647
1.662
1.657
1.647
1.642
1.662
1.672
1.657
1.662
1.686
1.701
1.691
1.681
1.696
1.716
1.701
1.686
1.706
1.716
1.706
1.691
1.696
1.711
1.706
1.681
1.681
1.701
1.706
1.701
1.701
1.716
1.716
1.691
1.691
1.711
1.716
1.706
1.696
1.706
1.716
1.696
1.676
1.686
1.701
1.701
1.696
1.706
1.725
1.725
1.701
1.711
1.72
1.711
1.686
1.676
1.691
1.696
1.667
1.667
1.691
1.696
1.686
1.672
1.676
1.681
1.662
1.652
1.672
1.691
1.681
1.672
1.667
1.676
1.667
1.642
1.652
1.667
1.662
1.647
1.647
1.657
1.657
1.628
1.628
1.657
1.667
1.662
1.662
1.676
1.696
1.672
1.652
1.657
1.657
1.642
1.628
1.632
1.657
1.652
1.637
1.652
1.672
1.672
1.657
1.652
1.662
1.662
1.637
1.637
1.662
1.667
1.662
1.662
1.676
1.691
1.667
1.647
1.652
1.662
1.652
1.642
1.647
1.667
1.657
1.637
1.652
1.676
1.672
1.657
1.647
1.662
1.667
1.642
1.637
1.657
1.662
1.652
1.652
1.667
1.686
1.672
1.662
1.676
1.686
1.672
1.657
1.657
1.672
1.662
1.637
1.647
1.662
1.662
1.652
1.647
1.667
1.672
1.652
1.647
1.662
1.662
1.647
1.632
1.637
1.652
1.632
1.623
1.647
1.667
1.667
1.657
1.662
1.676
1.667
1.657
1.672
1.696
1.701
1.696
1.696
1.72
1.725
1.696
1.696
1.72
1.72
1.72
1.716
1.735
1.755
1.74
1.72
1.735
1.74
1.725
1.701
1.701
1.711
1.696
1.667
1.672
1.686
1.681
1.662
1.662
1.676
1.676
1.647
1.642
1.662
1.672
1.662
1.647
1.657
1.667
1.647
1.637
1.652
1.662
1.647
1.632
1.637
1.647
1.618
1.574
1.569
1.579
1.579
1.584
1.623
1.706
1.804
1.896
2.019
2.146
2.243
2.297
2.326
2.341
2.331
2.263
2.18
2.107
2.028
1.921
1.818
1.745
1.701
1.652
1.603
1.603
1.632
1.642
1.642
1.647
1.667
1.672
1.642
1.632
1.647
1.647
1.637
1.632
1.652
1.672
1.647
1.632
1.637
1.642
1.632
1.623
1.628
1.647
1.637
1.613
1.628
1.652
1.652
1.647
1.647
1.667
1.667
1.642
1.642
1.662
1.662
1.652
1.642
1.652
1.662
1.642
1.632
1.652
1.667
1.657
1.652
1.662
1.686
1.672
1.647
1.657
1.681
1.681
1.676
1.676
1.701
1.706
1.686
1.686
1.701
1.706
1.691
1.681
1.696
1.711
1.691
1.681
1.701
1.711
1.706
1.701
1.711
1.735
1.73
1.711
1.72
1.735
1.725
1.711
1.706
1.72
1.72
1.696
1.696
1.72
1.735
1.73
1.72
1.73
1.74
1.72
1.706
1.72
1.725
1.716
1.706
1.706
1.725
1.716
1.696
1.706
1.725
1.716
1.706
1.706
1.725
1.725
1.696
1.696
1.716
1.72
1.711
1.696
1.706
1.716
1.686
1.672
1.691
1.706
1.696
1.686
1.691
1.706
1.696
1.676
1.686
1.701
1.691
1.672
1.662
1.676
1.681
1.652
1.657
1.672
1.672
1.657
1.647
1.657
1.672
1.652
1.647
1.667
1.681
1.676
1.667
1.676
1.696
1.686
1.662
1.676
1.696
1.696
1.676
1.667
1.681
1.681
1.652
1.652
1.676
1.681
1.676
1.681
1.701
1.716
1.696
1.676
1.686
1.686
1.672
1.657
1.662
1.686
1.681
1.667
1.676
1.696
1.696
1.681
1.676
1.691
1.691
1.662
1.662
1.676
1.681
1.667
1.662
1.676
1.696
1.676
1.672
1.691
1.706
1.701
1.686
1.686
1.696
1.681
1.662
1.676
1.691
1.686
1.681
1.681
1.696
1.696
1.667
1.667
1.691
1.696
1.686
1.681
1.696
1.706
1.691
1.691
1.72
1.735
1.73
1.72
1.735
1.75
1.735
1.711
1.72
1.74
1.74
1.735
1.74
1.76
1.76
1.735
1.73
1.745
1.735
1.716
1.696
1.701
1.711
1.686
1.672
1.691
1.696
1.686
1.672
1.676
1.691
1.676
1.647
1.657
1.672
1.667
1.657
1.652
1.667
1.667
1.647
1.647
1.676
1.676
1.662
1.647
1.652
1.652
1.623
1.613
1.642
1.681
1.725
1.784
1.867
1.955
2.004
2.033
2.072
2.097
2.087
2.058
2.019
1.989
1.931
1.848
1.789
1.75
1.701
1.647
1.608
1.608
1.623
1.618
1.628
1.667
1.691
1.696
1.681
1.691
1.701
1.686
1.657
1.662
1.676
1.667
1.652
1.642
1.662
1.667
1.642
1.652
1.676
1.686
1.681
1.676
1.686
1.696
1.672
1.657
1.672
1.681
1.672
1.657
1.667
1.681
1.672
1.647
1.657
1.676
1.676
1.672
1.676
1.696
1.701
1.676
1.681
1.701
1.701
1.681
1.672
1.691
1.706
1.691
1.686
1.716
1.73
1.725
1.716
1.72
1.74
1.725
1.706
1.72
1.735
1.73
1.72
1.72
1.735
1.73
1.701
1.701
1.72
1.72
1.716
1.716
1.74
1.755
1.73
1.72
1.745
1.764
1.76
1.75
1.755
1.769
1.755
1.735
1.745
1.755
1.745
1.73
1.73
1.745
1.75
1.725
1.735
1.755
1.755
1.745
1.73
1.74
1.745
1.716
1.701
1.72
1.735
1.73
1.72
1.73
1.745
1.73
1.706
1.711
1.725
1.72
1.706
1.706
1.72
1.72
1.696
1.696
1.701
1.696
1.681
1.662
1.672
1.676
1.647
1.637
1.652
1.662
1.647
1.637
1.647
1.676
1.667
1.652
1.667
1.686
1.681
1.672
1.667
1.681
1.672
1.642
1.642
1.657
1.657
1.647
1.647
1.667
1.681
1.672
1.667
1.686
1.696
1.681
1.672
1.676
1.686
1.667
1.642
1.652
1.672
1.662
1.652
1.647
1.667
1.672
1.647
1.647
1.667
1.672
1.667
1.662
1.681
1.691
1.672
1.657
1.681
1.686
1.672
1.652
1.662
1.681
1.672
1.652
1.662
1.681
1.676
1.667
1.667
1.681
1.681
1.652
1.647
1.662
1.662
1.652
1.642
1.657
1.662
1.637
1.632
1.652
1.662
1.657
1.652
1.667
1.686
1.672
1.657
1.672
1.696
1.696
1.686
1.691
1.711
1.72
1.706
1.716
1.74
1.74
1.725
1.716
1.725
1.735
1.711
1.706
1.725
1.73
1.72
1.706
1.706
1.716
1.691
1.657
1.652
1.657
1.642
1.628
1.623
1.637
1.637
1.613
1.628
1.652
1.657
1.647
1.642
1.652
1.662
1.637
1.628
1.642
1.647
1.632
1.613
1.618
1.628
1.608
1.579
1.584
1.593
1.588
1.593
1.623
1.686
1.75
1.808
1.901
2.004
2.077
2.121
2.155
2.185
2.185
2.131
2.072
2.019
1.945
1.857
1.769
1.711
1.676
1.623
1.584
1.588
1.613
1.618
1.623
1.637
1.662
1.662
1.632
1.628
1.642
1.637
1.623
1.608
1.623
1.628
1.603
1.598
1.623
1.637
1.632
1.632
1.647
1.672
1.657
1.632
1.642
1.657
1.647
1.637
1.637
1.657
1.652
1.623
1.628
1.647
1.647
1.637
1.632
1.652
1.667
1.642
1.637
1.657
1.667
1.652
1.642
1.647
1.662
1.647
1.628
1.637
1.662
1.662
1.652
1.657
1.681
1.691
1.676
1.681
1.706
1.706
1.691
1.676
1.686
1.691
1.672
1.667
1.696
1.706
1.696
1.686
1.696
1.72
1.706
1.696
1.706
1.725
1.72
1.711
1.711
1.72
1.716
1.686
1.691
1.706
1.706
1.696
1.696
1.716
1.725
1.706
1.696
1.716
1.73
1.72
1.706
1.706
1.716
1.696
1.681
1.696
1.716
1.711
1.701
1.701
1.72
1.711
1.681
1.676
1.691
1.686
1.672
1.662
1.676
1.686
1.662
1.652
1.672
1.686
1.681
1.676
1.681
1.696
1.681
1.657
1.662
1.667
1.652
1.632
1.628
1.642
1.642
1.623
1.628
1.647
1.652
1.642
1.637
1.647
1.657
1.632
1.623
1.642
1.652
1.642
1.632
1.652
1.672
1.657
1.642
1.652
1.667
1.662
1.642
1.642
1.657
1.657
1.637
1.642
1.667
1.662
1.652
1.642
1.652
1.662
1.642
1.642
1.667
1.676
1.672
1.657
1.672
1.681
1.662
1.642
1.652
1.667
1.662
1.647
1.652
1.667
1.662
1.632
1.637
1.657
1.657
1.642
1.642
1.657
1.672
1.652
1.642
1.657
1.662
1.647
1.623
1.623
1.637
1.623
1.608
1.628
1.657
1.662
1.657
1.667
1.691
1.686
1.657
1.657
1.667
1.662
1.642
1.637
1.657
1.676
1.657
1.657
1.681
1.686
1.676
1.667
1.676
1.691
1.676
1.667
1.686
1.706
1.711
1.706
1.711
1.73
1.725
1.701
1.706
1.725
1.72
1.706
1.696
1.706
1.706
1.681
1.672
1.686
1.691
1.676
1.662
1.667
1.672
1.642
1.613
1.623
1.632
1.632
1.628
1.632
1.657
1.662
1.642
1.647
1.662
1.657
1.642
1.632
1.642
1.642
1.613
1.603
1.608
1.598
1.579
1.559
1.564
1.593
1.603
1.637
1.72
1.833
1.935
2.033
2.126
2.209
2.253
2.248
2.239
2.219
2.16
2.077
1.989
1.916
1.838
1.74
1.676
1.652
1.623
1.593
1.584
1.603
1.637
1.632
1.632
1.657
1.676
1.662
1.642
1.637
1.642
1.637
1.613
1.618
1.632
1.637
1.628
1.628
1.652
1.662
1.642
1.632
1.647
1.647
1.628
1.608
1.618
1.637
1.623
1.613
1.628
1.642
1.642
1.628
1.632
1.652
1.642
1.618
1.632
1.652
1.647
1.637
1.632
1.652
1.662
1.642
1.637
1.662
1.672
1.667
1.662
1.676
1.696
1.681
1.662
1.672
1.686
1.681
1.667
1.667
1.686
1.681
1.662
1.676
1.701
1.706
1.696
1.686
1.696
1.706
1.681
1.676
1.696
1.706
1.701
1.696
1.701
1.716
1.691
1.676
1.691
1.711
1.711
1.706
1.711
1.73
1.725
1.696
1.696
1.711
1.711
1.696
1.696
1.716
1.73
1.706
1.701
1.72
1.73
1.711
1.691
1.691
1.696
1.672
1.652
1.662
1.676
1.676
1.667
1.672
1.696
1.696
1.681
1.686
1.706
1.696
1.676
1.667
1.676
1.676
1.652
1.642
1.662
1.662
1.647
1.632
1.642
1.662
1.647
1.632
1.652
1.672
1.672
1.657
1.657
1.672
1.657
1.628
1.628
1.642
1.637
1.632
1.632
1.652
1.662
1.637
1.632
1.647
1.652
1.642
1.632
1.637
1.652
1.632
1.618
1.637
1.652
1.642
1.632
1.637
1.662
1.662
1.637
1.647
1.672
1.672
1.657
1.647
1.662
1.672
1.647
1.642
1.662
1.672
1.662
1.657
1.667
1.681
1.657
1.632
1.642
1.657
1.647
1.637
1.642
1.662
1.662
1.642
1.652
1.672
1.667
1.652
1.642
1.657
1.662
1.637
1.632
1.652
1.657
1.652
1.647
1.657
1.672
1.647
1.632
1.642
1.647
1.632
1.618
1.623
1.647
1.642
1.628
1.642
1.667
1.667
1.662
1.657
1.672
1.672
1.642
1.642
1.667
1.676
1.667
1.652
1.662
1.676
1.662
1.647
1.672
1.691
1.686
1.681
1.696
1.725
1.725
1.701
1.711
1.725
1.72
1.711
1.701
1.716
1.725
1.701
1.696
1.716
1.72
1.701
1.686
1.686
1.686
1.657
1.632
1.647
1.657
1.652
1.642
1.647
1.667
1.662
1.632
1.637
1.647
1.642
1.623
1.618
1.628
1.637
1.618
1.618
1.642
1.647
1.628
1.608
1.608
1.613
1.579
1.554
1.564
1.584
1.598
1.628
1.701
1.808
1.911
1.999
2.111
2.219
2.273
2.287
2.278
2.263
2.209
2.102
2.009
1.94
1.862
1.774
1.701
1.662
1.637
1.598
1.584
1.603
1.628
1.628
1.628
1.642
1.667
1.652
1.618
1.623
1.642
1.637
1.623
1.618
1.637
1.647
1.623
1.618
1.637
1.642
1.628
1.618
1.632
1.647
1.628
1.613
1.628
1.647
1.642
1.632
1.637
1.662
1.652
1.623
1.628
1.647
1.642
1.642
1.642
1.662
1.667
1.637
1.637
1.657
1.657
1.642
1.637
1.652
1.676
1.667
1.657
1.676
1.681
1.672
1.657
1.657
1.667
1.657
1.637
1.652
1.681
1.691
1.686
1.686
1.706
1.711
1.686
1.686
1.706
1.706
1.701
1.686
1.696
1.711
1.691
1.676
1.691
1.706
1.696
1.691
1.696
1.72
1.72
1.706
1.711
1.725
1.725
1.711
1.706
1.72
1.725
1.696
1.691
1.716
1.716
1.706
1.691
1.706
1.716
1.696
1.681
1.696
1.706
1.696
1.681
1.686
1.706
1.696
1.676
1.691
1.711
1.701
1.691
1.681
1.696
1.691
1.662
1.647
1.662
1.667
1.657
1.652
1.672
1.691
1.667
1.652
1.667
1.676
1.662
1.647
1.647
1.662
1.652
1.632
1.642
1.657
1.647
1.632
1.623
1.637
1.642
1.623
1.628
1.652
1.657
1.647
1.632
1.642
1.647
1.623
1.608
1.628
1.642
1.637
1.632
1.642
1.667
1.657
1.632
1.637
1.652
1.642
1.632
1.628
1.647
1.657
1.637
1.642
1.667
1.672
1.662
1.657
1.672
1.686
1.667
1.647
1.662
1.672
1.657
1.642
1.642
1.657
1.652
1.628
1.637
1.662
1.657
1.642
1.637
1.652
1.657
1.632
1.632
1.657
1.662
1.657
1.642
1.647
1.657
1.632
1.613
1.628
1.642
1.637
1.628
1.637
1.657
1.647
1.623
1.637
1.657
1.657
1.642
1.637
1.657
1.662
1.637
1.632
1.652
1.657
1.647
1.642
1.652
1.662
1.642
1.623
1.632
1.647
1.637
1.628
1.637
1.662
1.657
1.632
1.637
1.652
1.642
1.637
1.637
1.662
1.667
1.647
1.657
1.681
1.686
1.676
1.662
1.672
1.691
1.676
1.672
1.691
1.706
1.701
1.696
1.701
1.72
1.711
1.691
1.706
1.725
1.72
1.701
1.691
1.696
1.686
1.652
1.637
1.652
1.652
1.637
1.632
1.642
1.657
1.632
1.623
1.637
1.647
1.632
1.618
1.618
1.632
1.628
1.608
1.623
1.647
1.647
1.637
1.628
1.628
1.608
1.559
1.54
1.549
1.554
1.569
1.608
1.701
1.823
1.926
2.033
2.155
2.243
2.292
2.312
2.317
2.307
2.243
2.151
2.072
1.999
1.901
1.804
1.72
1.672
1.628
1.574
1.564
1.588
1.613
1.623
1.632
1.652
1.667
1.637
1.618
1.623
1.632
1.623
1.613
1.618
1.632
1.623
1.603
1.613
1.628
1.623
1.618
1.623
1.642
1.642
1.613
1.613
1.637
1.637
1.628
1.618
1.632
1.642
1.623
1.613
1.632
1.647
1.637
1.628
1.637
1.657
1.647
1.628
1.637
1.657
1.657
1.647
1.647
1.662
1.662
1.637
1.642
1.662
1.667
1.657
1.652
1.667
1.681
1.662
1.652
1.672
1.681
1.672
1.662
1.667
1.686
1.676
1.657
1.672
1.691
1.691
1.686
1.686
1.711
1.716
1.691
1.696
1.711
1.711
1.696
1.686
1.696
1.711
1.691
1.681
1.701
1.711
1.701
1.691
1.696
1.711
1.701
1.676
1.686
1.711
1.706
1.691
1.686
1.696
1.696
1.672
1.676
1.686
1.686
1.676
1.672
1.686
1.706
1.686
1.676
1.691
1.706
1.696
1.691
1.691
1.701
1.686
1.662
1.672
1.686
1.681
1.667
1.662
1.676
1.676
1.642
1.637
1.657
1.657
1.642
1.632
1.647
1.662
1.647
1.637
1.652
1.657
1.637
1.623
1.623
1.637
1.623
1.603
1.618
1.647
1.652
1.642
1.642
1.657
1.657
1.628
1.628
1.647
1.652
1.647
1.642
1.662
1.672
1.647
1.632
1.642
1.652
1.642
1.632
1.642
1.667
1.657
1.642
1.657
1.672
1.667
1.652
1.647
1.657
1.652
1.628
1.628
1.647
1.647
1.637
1.632
1.647
1.662
1.642
1.632
1.652
1.662
1.652
1.632
1.637
1.652
1.637
1.618
1.632
1.657
1.657
1.652
1.647
1.662
1.657
1.628
1.628
1.642
1.647
1.637
1.623
1.632
1.647
1.632
1.628
1.647
1.657
1.647
1.637
1.642
1.662
1.647
1.623
1.632
1.647
1.642
1.632
1.637
1.662
1.667
1.642
1.637
1.657
1.662
1.652
1.637
1.647
1.657
1.632
1.618
1.632
1.647
1.642
1.632
1.642
1.662
1.657
1.642
1.657
1.672
1.662
1.642
1.632
1.647
1.647
1.628
1.632
1.657
1.662
1.657
1.647
1.662
1.672
1.652
1.642
1.662
1.672
1.662
1.652
1.662
1.686
1.676
1.662
1.686
1.711
1.716
1.706
1.711
1.73
1.73
1.706
1.701
1.72
1.725
1.706
1.696
1.701
1.706
1.676
1.662
1.672
1.676
1.662
1.652
1.657
1.672
1.657
1.632
1.637
1.652
1.647
1.637
1.642
1.662
1.667
1.642
1.647
1.662
1.657
1.637
1.618
1.623
1.613
1.574
1.544
1.549
1.559
1.564
1.584
1.647
1.755
1.857
1.97
2.102
2.229
2.307
2.346
2.361
2.361
2.322
2.234
2.155
2.077
1.984
1.882
1.794
1.735
1.691
1.632
1.598
1.613
1.628
1.632
1.637
1.657
1.672
1.652
1.628
1.628
1.632
1.628
1.618
1.623
1.647
1.647
1.623
1.628
1.642
1.642
1.632
1.628
1.637
1.647
1.623
1.608
1.623
1.632
1.623
1.618
1.628
1.647
1.637
1.623
1.637
1.657
1.657
1.647
1.652
1.672
1.672
1.647
1.647
1.667
1.662
1.642
1.637
1.647
1.662
1.647
1.642
1.667
1.676
1.667
1.657
1.667
1.686
1.676
1.662
1.676
1.696
1.691
1.676
1.676
1.696
1.691
1.667
1.676
1.701
1.701
1.696
1.686
1.701
1.711
1.691
1.681
1.696
1.716
1.716
1.716
1.725
1.745
1.73
1.711
1.716
1.725
1.72
1.711
1.711
1.73
1.735
1.711
1.711
1.725
1.725
1.706
1.696
1.706
1.716
1.701
1.691
1.706
1.716
1.701
1.686
1.686
1.696
1.681
1.667
1.686
1.706
1.701
1.686
1.686
1.701
1.701
1.672
1.672
1.691
1.696
1.681
1.676
1.696
1.706
1.681
1.672
1.681
1.686
1.672
1.657
1.657
1.672
1.652
1.637
1.647
1.667
1.667
1.652
1.657
1.676
1.672
1.647
1.657
1.676
1.676
1.662
1.652
1.667
1.672
1.647
1.632
1.647
1.657
1.652
1.647
1.657
1.676
1.667
1.647
1.657
1.672
1.662
1.652
1.652
1.672
1.667
1.637
1.642
1.667
1.672
1.662
1.652
1.662
1.672
1.652
1.657
1.681
1.691
1.676
1.662
1.662
1.676
1.662
1.642
1.657
1.672
1.672
1.662
1.662
1.676
1.672
1.642
1.647
1.662
1.662
1.647
1.642
1.662
1.672
1.652
1.642
1.662
1.672
1.662
1.647
1.657
1.672
1.657
1.632
1.647
1.667
1.662
1.657
1.662
1.686
1.681
1.662
1.662
1.676
1.672
1.657
1.642
1.657
1.667
1.642
1.637
1.657
1.667
1.657
1.652
1.667
1.681
1.667
1.647
1.657
1.676
1.672
1.657
1.652
1.667
1.657
1.632
1.637
1.662
1.662
1.652
1.642
1.652
1.662
1.642
1.642
1.667
1.676
1.672
1.667
1.681
1.696
1.681
1.662
1.672
1.686
1.681
1.672
1.672
1.696
1.696
1.676
1.676
1.701
1.706
1.696
1.696
1.72
1.735
1.716
1.711
1.73
1.74
1.725
1.72
1.73
1.745
1.73
1.711
1.72
1.73
1.711
1.691
1.681
1.691
1.681
1.652
1.652
1.672
1.672
1.662
1.657
1.672
1.676
1.647
1.637
1.662
1.672
1.667
1.657
1.672
1.691
1.676
1.652
1.647
1.637
1.608
1.574
1.559
1.564
1.569
1.569
1.613
1.701
1.799
1.911
2.033
2.165
2.273
2.331
2.37
2.405
2.395
2.341
2.258
2.17
2.082
1.965
1.852
1.779
1.72
1.657
1.613
1.593
1.613
1.623
1.623
1.652
1.686
1.686
1.672
1.657
1.672
1.676
1.647
1.642
1.657
1.662
1.652
1.637
1.642
1.652
1.637
1.623
1.637
1.652
1.652
1.647
1.647
1.662
1.657
1.632
1.642
1.662
1.667
1.652
1.647
1.662
1.667
1.642
1.637
1.662
1.676
1.672
1.662
1.676
1.691
1.676
1.662
1.686
1.701
1.696
1.681
1.681
1.701
1.696
1.672
1.681
1.701
1.701
1.691
1.686
1.706
1.716
1.681
1.672
1.686
1.696
1.691
1.686
1.701
1.725
1.716
1.706
1.725
1.74
1.735
1.72
1.725
1.745
1.745
1.725
1.735
1.76
1.755
1.745
1.735
1.745
1.745
1.716
1.711
1.725
1.735
1.725
1.716
1.725
1.745
1.73
1.716
1.73
1.74
1.725
1.72
1.725
1.745
1.74
1.711
1.716
1.735
1.735
1.716
1.706
1.72
1.725
1.701
1.701
1.73
1.745
1.735
1.725
1.725
1.735
1.711
1.686
1.691
1.691
1.681
1.672
1.676
1.696
1.686
1.662
1.662
1.681
1.681
1.667
1.662
1.676
1.686
1.657
1.652
1.672
1.672
1.662
1.652
1.657
1.672
1.657
1.647
1.672
1.696
1.701
1.691
1.696
1.716
1.706
1.681
1.681
1.691
1.681
1.662
1.652
1.662
1.667
1.647
1.652
1.676
1.686
1.681
1.676
1.691
1.711
1.691
1.672
1.681
1.686
1.681
1.672
1.676
1.696
1.691
1.667
1.672
1.686
1.676
1.657
1.647
1.662
1.676
1.662
1.667
1.696
1.706
1.696
1.681
1.681
1.691
1.662
1.637
1.652
1.662
1.662
1.652
1.662
1.691
1.696
1.672
1.676
1.696
1.686
1.676
1.667
1.676
1.676
1.652
1.652
1.681
1.691
1.686
1.676
1.686
1.696
1.672
1.652
1.667
1.681
1.672
1.657
1.662
1.681
1.672
1.647
1.647
1.667
1.657
1.647
1.642
1.662
1.676
1.662
1.667
1.691
1.701
1.696
1.691
1.706
1.72
1.701
1.686
1.701
1.711
1.706
1.696
1.701
1.73
1.73
1.716
1.725
1.75
1.75
1.745
1.74
1.76
1.76
1.725
1.72
1.735
1.73
1.711
1.691
1.696
1.701
1.672
1.647
1.662
1.676
1.676
1.662
1.662
1.676
1.676
1.662
1.676
1.701
1.706
1.696
1.686
1.701
1.701
1.667
1.652
1.657
1.652
1.632
1.613
1.618
1.628
1.603
1.584
1.603
1.637
1.667
1.711
1.794
1.901
1.989
2.053
2.131
2.204
2.239
2.234
2.214
2.185
2.126
2.023
1.935
1.867
1.794
1.716
1.652
1.628
1.623
1.608
1.608
1.647
1.681
1.691
1.686
1.686
1.691
1.676
1.652
1.657
1.672
1.672
1.662
1.662
1.681
1.691
1.662
1.657
1.676
1.681
1.672
1.662
1.672
1.686
1.667
1.647
1.662
1.672
1.667
1.652
1.657
1.676
1.672
1.657
1.672
1.696
1.696
1.691
1.686
1.706
1.711
1.681
1.672
1.691
1.701
1.686
1.681
1.696
1.716
1.701
1.691
1.706
1.716
1.711
1.706
1.711
1.73
1.725
1.701
1.711
1.725
1.725
1.716
1.706
1.72
1.73
1.711
1.716
1.745
1.76
1.75
1.74
1.75
1.764
1.745
1.73
1.74
1.755
1.75
1.735
1.745
1.764
1.76
1.735
1.745
1.76
1.755
1.74
1.735
1.755
1.764
1.735
1.735
1.75
1.755
1.745
1.735
1.745
1.76
1.745
1.73
1.745
1.755
1.745
1.73
1.725
1.74
1.725
1.701
1.711
1.73
1.725
1.716
1.711
1.725
1.73
1.706
1.706
1.72
1.72
1.706
1.686
1.691
1.696
1.672
1.647
1.662
1.681
1.672
1.657
1.667
1.691
1.691
1.662
1.667
1.686
1.681
1.667
1.662
1.681
1.686
1.657
1.657
1.676
1.676
1.662
1.647
1.652
1.662
1.642
1.637
1.657
1.681
1.676
1.672
1.681
1.701
1.691
1.662
1.672
1.691
1.681
1.667
1.667
1.681
1.686
1.662
1.662
1.686
1.686
1.676
1.667
1.681
1.696
1.676
1.662
1.676
1.691
1.676
1.667
1.662
1.672
1.662
1.647
1.662
1.681
1.681
1.672
1.672
1.686
1.681
1.652
1.647
1.667
1.667
1.657
1.652
1.662
1.676
1.657
1.642
1.657
1.672
1.667
1.657
1.667
1.686
1.686
1.667
1.676
1.691
1.686
1.672
1.667
1.681
1.686
1.657
1.662
1.686
1.696
1.696
1.691
1.716
1.73
1.716
1.701
1.716
1.725
1.716
1.706
1.711
1.73
1.72
1.696
1.701
1.711
1.696
1.676
1.667
1.676
1.676
1.647
1.647
1.667
1.667
1.652
1.642
1.652
1.662
1.647
1.637
1.662
1.676
1.672
1.662
1.662
1.676
1.662
1.637
1.642
1.652
1.642
1.618
1.603
1.603
1.598
1.564
1.564
1.593
1.623
1.652
1.716
1.808
1.911
1.979
2.043
2.111
2.17
2.185
2.175
2.151
2.121
2.043
1.95
1.887
1.828
1.76
1.686
1.637
1.618
1.603
1.579
1.588
1.628
1.652
1.657
1.657
1.676
1.686
1.662
1.642
1.652
1.657
1.647
1.632
1.632
1.647
1.632
1.613
1.618
1.637
1.632
1.623
1.623
1.642
1.652
1.628
1.632
1.657
1.662
1.652
1.642
1.652
1.672
1.657
1.647
1.667
1.672
1.662
1.652
1.657
1.676
1.667
1.642
1.657
1.681
1.681
1.672
1.676
1.696
1.701
1.676
1.672
1.681
1.681
1.667
1.662
1.676
1.696
1.681
1.672
1.696
1.716
1.706
1.696
1.696
1.711
1.696
1.672
1.686
1.706
1.706
1.696
1.706
1.73
1.735
1.716
1.716
1.735
1.74
1.73
1.725
1.735
1.745
1.725
1.72
1.735
1.74
1.73
1.716
1.711
1.725
1.716
1.696
1.706
1.73
1.725
1.711
1.711
1.725
1.73
1.706
1.706
1.725
1.725
1.716
1.701
1.706
1.711
1.691
1.681
1.701
1.711
1.701
1.686
1.686
1.701
1.686
1.662
1.672
1.686
1.676
1.662
1.657
1.672
1.672
1.637
1.628
1.632
1.632
1.623
1.618
1.637
1.657
1.642
1.642
1.662
1.676
1.667
1.647
1.642
1.652
1.632
1.608
1.618
1.642
1.647
1.632
1.637
1.652
1.657
1.632
1.637
1.652
1.662
1.652
1.642
1.652
1.667
1.647
1.632
1.647
1.657
1.647
1.632
1.637
1.662
1.652
1.632
1.642
1.662
1.657
1.647
1.652
1.672
1.681
1.657
1.652
1.672
1.672
1.662
1.657
1.667
1.672
1.642
1.628
1.642
1.652
1.642
1.628
1.637
1.657
1.652
1.632
1.647
1.667
1.662
1.647
1.647
1.657
1.652
1.628
1.632
1.652
1.657
1.647
1.632
1.642
1.647
1.623
1.618
1.637
1.647
1.642
1.637
1.647
1.667
1.662
1.647
1.662
1.681
1.676
1.662
1.662
1.676
1.672
1.647
1.647
1.672
1.676
1.681
1.686
1.706
1.72
1.701
1.691
1.711
1.725
1.716
1.701
1.701
1.716
1.706
1.681
1.686
1.686
1.667
1.647
1.642
1.657
1.652
1.623
1.623
1.642
1.642
1.632
1.623
1.637
1.647
1.623
1.613
1.632
1.652
1.652
1.642
1.647
1.657
1.637
1.608
1.603
1.598
1.574
1.549
1.535
1.549
1.559
1.569
1.623
1.72
1.823
1.926
2.028
2.146
2.239
2.273
2.292
2.312
2.297
2.234
2.151
2.063
1.989
1.887
1.784
1.72
1.676
1.628
1.588
1.584
1.603
1.613
1.598
1.608
1.628
1.632
1.618
1.603
1.613
1.618
1.603
1.598
1.623
1.637
1.628
1.613
1.613
1.632
1.623
1.603
1.618
1.637
1.637
1.628
1.628
1.647
1.652
1.628
1.628
1.642
1.647
1.632
1.628
1.642
1.657
1.632
1.628
1.642
1.652
1.637
1.623
1.628
1.642
1.628
1.613
1.628
1.657
1.662
1.662
1.667
1.691
1.691
1.662
1.657
1.672
1.667
1.652
1.642
1.657
1.672
1.657
1.657
1.681
1.701
1.696
1.691
1.701
1.716
1.706
1.686
1.701
1.716
1.711
1.696
1.691
1.711
1.711
1.686
1.691
1.711
1.72
1.711
1.706
1.716
1.725
1.706
1.696
1.711
1.711
1.701
1.691
1.701
1.72
1.711
1.696
1.706
1.725
1.72
1.706
1.701
1.711
1.706
1.676
1.681
1.706
1.711
1.696
1.686
1.701
1.711
1.686
1.676
1.686
1.691
1.676
1.662
1.667
1.686
1.672
1.652
1.667
1.681
1.676
1.662
1.657
1.676
1.672
1.642
1.642
1.657
1.647
1.632
1.618
1.623
1.628
1.603
1.598
1.618
1.628
1.623
1.623
1.628
1.642
1.628
1.608
1.618
1.637
1.637
1.632
1.632
1.657
1.657
1.632
1.637
1.657
1.657
1.642
1.637
1.652
1.667
1.642
1.632
1.652
1.662
1.657
1.642
1.647
1.667
1.647
1.632
1.647
1.662
1.657
1.647
1.647
1.662
1.657
1.632
1.632
1.652
1.652
1.637
1.632
1.647
1.657
1.637
1.628
1.647
1.657
1.647
1.637
1.642
1.662
1.647
1.632
1.647
1.662
1.657
1.642
1.637
1.652
1.652
1.628
1.628
1.642
1.647
1.637
1.632
1.647
1.662
1.637
1.632
1.652
1.667
1.662
1.652
1.657
1.676
1.667
1.652
1.667
1.676
1.667
1.657
1.667
1.691
1.696
1.676
1.681
1.711
1.716
1.706
1.701
1.716
1.72
1.696
1.686
1.706
1.716
1.711
1.701
1.706
1.716
1.696
1.667
1.667
1.672
1.657
1.642
1.632
1.647
1.637
1.613
1.618
1.642
1.642
1.632
1.632
1.652
1.672
1.657
1.652
1.672
1.676
1.657
1.632
1.632
1.632
1.598
1.559
1.554
1.554
1.54
1.525
1.535
1.584
1.637
1.696
1.808
1.95
2.077
2.175
2.253
2.322
2.361
2.336
2.302
2.268
2.199
2.102
1.999
1.911
1.838
1.745
1.662
1.628
1.618
1.603
1.598
1.608
1.642
1.652
1.642
1.642
1.657
1.647
1.628
1.613
1.618
1.623
1.598
1.588
1.608
1.623
1.618
1.613
1.623
1.647
1.632
1.618
1.632
1.642
1.632
1.618
1.608
1.623
1.628
1.613
1.623
1.647
1.647
1.642
1.637
1.652
1.662
1.637
1.623
1.642
1.647
1.637
1.632
1.652
1.676
1.662
1.637
1.647
1.657
1.652
1.637
1.637
1.662
1.667
1.647
1.652
1.681
1.691
1.691
1.691
1.706
1.711
1.686
1.681
1.696
1.701
1.681
1.672
1.676
1.701
1.696
1.691
1.716
1.74
1.74
1.725
1.72
1.735
1.725
1.696
1.701
1.716
1.72
1.711
1.701
1.716
1.725
1.701
1.696
1.716
1.725
1.716
1.701
1.711
1.725
1.706
1.686
1.701
1.711
1.706
1.696
1.696
1.711
1.711
1.696
1.701
1.72
1.72
1.711
1.701
1.716
1.725
1.706
1.696
1.711
1.716
1.701
1.681
1.681
1.686
1.662
1.637
1.642
1.657
1.652
1.642
1.642
1.657
1.652
1.632
1.637
1.657
1.652
1.637
1.632
1.652
1.667
1.642
1.632
1.652
1.657
1.647
1.637
1.647
1.667
1.662
1.647
1.662
1.672
1.662
1.642
1.642
1.662
1.652
1.628
1.632
1.652
1.657
1.647
1.647
1.667
1.681
1.662
1.657
1.672
1.676
1.667
1.657
1.662
1.672
1.657
1.642
1.662
1.676
1.672
1.657
1.652
1.667
1.662
1.637
1.652
1.676
1.681
1.676
1.672
1.686
1.686
1.652
1.642
1.652
1.652
1.637
1.628
1.642
1.662
1.652
1.642
1.657
1.676
1.672
1.662
1.662
1.681
1.672
1.647
1.652
1.672
1.667
1.657
1.647
1.662
1.662
1.637
1.637
1.657
1.667
1.657
1.647
1.657
1.667
1.647
1.632
1.652
1.676
1.676
1.672
1.676
1.701
1.701
1.681
1.681
1.691
1.686
1.676
1.676
1.701
1.716
1.696
1.696
1.72
1.725
1.716
1.706
1.711
1.73
1.72
1.711
1.73
1.745
1.74
1.72
1.711
1.716
1.691
1.647
1.642
1.657
1.652
1.647
1.652
1.676
1.691
1.667
1.662
1.676
1.676
1.662
1.647
1.652
1.667
1.652
1.637
1.652
1.662
1.642
1.618
1.603
1.608
1.588
1.554
1.554
1.579
1.593
1.613
1.657
1.755
1.867
1.965
2.087
2.209
2.297
2.336
2.351
2.346
2.326
2.239
2.141
2.058
1.975
1.882
1.789
1.72
1.686
1.647
1.603
1.608
1.637
1.652
1.657
1.662
1.681
1.686
1.652
1.632
1.642
1.637
1.628
1.623
1.637
1.652
1.628
1.608
1.623
1.632
1.628
1.618
1.628
1.647
1.647
1.628
1.628
1.647
1.647
1.637
1.632
1.642
1.647
1.623
1.623
1.647
1.657
1.652
1.647
1.662
1.676
1.657
1.642
1.662
1.672
1.662
1.652
1.657
1.681
1.676
1.652
1.662
1.681
1.681
1.672
1.667
1.681
1.686
1.662
1.662
1.686
1.691
1.681
1.672
1.686
1.706
1.691
1.686
1.701
1.716
1.711
1.701
1.701
1.716
1.706
1.681
1.691
1.711
1.711
1.711
1.706
1.725
1.73
1.711
1.711
1.73
1.735
1.725
1.72
1.735
1.75
1.73
1.72
1.73
1.745
1.735
1.72
1.716
1.73
1.716
1.691
1.696
1.706
1.701
1.691
1.686
1.701
1.711
1.691
1.691
1.711
1.711
1.691
1.681
1.696
1.716
1.696
1.686
1.706
1.716
1.711
1.691
1.686
1.691
1.676
1.647
1.647
1.662
1.657
1.652
1.647
1.667
1.667
1.642
1.642
1.667
1.676
1.667
1.657
1.667
1.676
1.647
1.628
1.632
1.642
1.632
1.623
1.628
1.652
1.652
1.637
1.647
1.667
1.667
1.662
1.662
1.676
1.676
1.657
1.652
1.672
1.672
1.652
1.642
1.652
1.667
1.647
1.637
1.647
1.662
1.652
1.637
1.642
1.667
1.662
1.642
1.657
1.676
1.672
1.657
1.652
1.657
1.657
1.632
1.628
1.652
1.662
1.662
1.652
1.667
1.681
1.662
1.642
1.657
1.667
1.662
1.647
1.657
1.672
1.662
1.637
1.647
1.672
1.672
1.657
1.652
1.667
1.667
1.642
1.642
1.657
1.662
1.652
1.637
1.647
1.662
1.647
1.642
1.662
1.676
1.667
1.657
1.657
1.672
1.657
1.637
1.647
1.662
1.662
1.647
1.652
1.672
1.681
1.657
1.657
1.676
1.676
1.667
1.657
1.667
1.686
1.667
1.652
1.667
1.676
1.667
1.667
1.681
1.711
1.711
1.696
1.72
1.75
1.75
1.74
1.74
1.745
1.74
1.706
1.696
1.706
1.706
1.701
1.691
1.706
1.72
1.696
1.681
1.691
1.696
1.676
1.657
1.647
1.662
1.647
1.628
1.642
1.662
1.662
1.652
1.642
1.657
1.662
1.637
1.642
1.662
1.662
1.647
1.623
1.618
1.608
1.569
1.544
1.564
1.588
1.623
1.667
1.76
1.887
1.999
2.097
2.204
2.292
2.336
2.341
2.326
2.307
2.248
2.141
2.048
1.97
1.887
1.799
1.725
1.686
1.662
1.618
1.598
1.618
1.642
1.652
1.652
1.662
1.681
1.667
1.642
1.647
1.662
1.657
1.642
1.632
1.647
1.642
1.613
1.608
1.623
1.623
1.613
1.608
1.623
1.637
1.618
1.603
1.618
1.632
1.628
1.623
1.637
1.662
1.662
1.647
1.662
1.681
1.676
1.662
1.652
1.667
1.667
1.642
1.642
1.662
1.667
1.657
1.652
1.672
1.686
1.672
1.657
1.672
1.681
1.672
1.662
1.667
1.681
1.672
1.652
1.667
1.691
1.696
1.686
1.676
1.691
1.701
1.681
1.686
1.706
1.711
1.701
1.701
1.716
1.73
1.711
1.701
1.72
1.735
1.725
1.711
1.711
1.725
1.716
1.696
1.701
1.716
1.716
1.711
1.716
1.735
1.74
1.711
1.706
1.725
1.72
1.711
1.701
1.716
1.735
1.716
1.706
1.72
1.73
1.716
1.696
1.691
1.706
1.691
1.676
1.696
1.73
1.735
1.725
1.72
1.725
1.716
1.676
1.662
1.672
1.672
1.657
1.652
1.662
1.681
1.662
1.652
1.667
1.676
1.662
1.647
1.652
1.667
1.652
1.628
1.637
1.652
1.642
1.632
1.632
1.652
1.657
1.632
1.632
1.652
1.657
1.642
1.637
1.647
1.667
1.657
1.647
1.672
1.681
1.676
1.662
1.662
1.676
1.657
1.623
1.632
1.652
1.652
1.647
1.647
1.667
1.672
1.647
1.647
1.667
1.672
1.657
1.647
1.657
1.667
1.642
1.628
1.647
1.662
1.657
1.647
1.652
1.667
1.647
1.623
1.632
1.647
1.647
1.637
1.642
1.667
1.676
1.657
1.662
1.681
1.676
1.662
1.647
1.662
1.676
1.657
1.647
1.662
1.667
1.657
1.642
1.647
1.662
1.647
1.628
1.637
1.652
1.647
1.632
1.632
1.652
1.652
1.628
1.623
1.642
1.647
1.642
1.637
1.652
1.662
1.642
1.632
1.652
1.667
1.657
1.647
1.657
1.676
1.672
1.652
1.667
1.681
1.672
1.652
1.647
1.652
1.652
1.628
1.632
1.657
1.667
1.662
1.662
1.676
1.691
1.667
1.652
1.667
1.676
1.667
1.657
1.672
1.696
1.696
1.686
1.706
1.725
1.735
1.73
1.73
1.74
1.735
1.701
1.701
1.72
1.72
1.711
1.706
1.716
1.72
1.696
1.681
1.691
1.696
1.676
1.657
1.657
1.672
1.657
1.637
1.642
1.657
1.647
1.628
1.628
1.647
1.652
1.628
1.632
1.657
1.662
1.637
1.613
1.603
1.593
1.559
1.544
1.564
1.584
1.608
1.657
1.76
1.891
2.009
2.107
2.219
2.312
2.356
2.356
2.341
2.317
2.248
2.136
2.043
1.965
1.877
1.784
1.706
1.662
1.632
1.588
1.574
1.603
1.628
1.642
1.647
1.657
1.667
1.647
1.613
1.613
1.623
1.618
1.613
1.618
1.642
1.642
1.618
1.618
1.642
1.642
1.632
1.623
1.628
1.637
1.618
1.613
1.637
1.657
1.657
1.652
1.657
1.667
1.647
1.618
1.623
1.632
1.628
1.618
1.628
1.652
1.662
1.642
1.647
1.667
1.662
1.642
1.632
1.647
1.662
1.642
1.637
1.652
1.667
1.657
1.652
1.667
1.686
1.681
1.662
1.676
1.696
1.686
1.672
1.667
1.691
1.696
1.681
1.691
1.725
1.735
1.73
1.72
1.735
1.735
1.706
1.686
1.701
1.716
1.711
1.706
1.711
1.725
1.716
1.686
1.696
1.711
1.701
1.686
1.681
1.706
1.706
1.681
1.686
1.701
1.706
1.701
1.691
1.706
1.72
1.701
1.686
1.701
1.706
1.701
1.691
1.696
1.711
1.696
1.681
1.696
1.72
1.716
1.701
1.696
1.706
1.701
1.672
1.672
1.686
1.681
1.667
1.657
1.667
1.681
1.657
1.647
1.662
1.667
1.657
1.642
1.647
1.662
1.647
1.632
1.642
1.652
1.642
1.628
1.628
1.647
1.652
1.637
1.642
1.667
1.676
1.672
1.662
1.662
1.662
1.632
1.623
1.637
1.647
1.642
1.637
1.647
1.672
1.662
1.642
1.647
1.662
1.657
1.647
1.642
1.662
1.662
1.642
1.652
1.672
1.676
1.662
1.647
1.657
1.662
1.642
1.632
1.647
1.662
1.657
1.647
1.657
1.681
1.667
1.642
1.647
1.657
1.652
1.642
1.647
1.672
1.676
1.657
1.657
1.676
1.672
1.657
1.647
1.652
1.662
1.637
1.628
1.647
1.657
1.647
1.642
1.652
1.672
1.662
1.647
1.662
1.676
1.667
1.652
1.652
1.662
1.657
1.628
1.628
1.652
1.657
1.647
1.642
1.662
1.676
1.662
1.657
1.676
1.691
1.681
1.672
1.681
1.706
1.696
1.686
1.706
1.735
1.735
1.725
1.725
1.745
1.735
1.706
1.701
1.72
1.72
1.716
1.711
1.725
1.74
1.716
1.706
1.725
1.725
1.701
1.681
1.676
1.686
1.662
1.642
1.647
1.662
1.657
1.647
1.647
1.662
1.662
1.637
1.642
1.667
1.662
1.652
1.642
1.657
1.657
1.623
1.603
1.613
1.623
1.618
1.608
1.618
1.637
1.632
1.642
1.691
1.755
1.808
1.867
1.94
2.023
2.077
2.097
2.121
2.141
2.111
2.053
1.975
1.911
1.838
1.74
1.662
1.632
1.603
1.579
1.564
1.584
1.623
1.632
1.637
1.657
1.672
1.662
1.642
1.637
1.647
1.642
1.613
1.613
1.632
1.642
1.632
1.632
1.652
1.667
1.642
1.642
1.662
1.667
1.652
1.632
1.632
1.647
1.632
1.618
1.637
1.667
1.667
1.657
1.657
1.672
1.672
1.652
1.657
1.676
1.672
1.652
1.647
1.667
1.681
1.667
1.662
1.686
1.696
1.691
1.686
1.696
1.706
1.686
1.662
1.676
1.696
1.696
1.686
1.696
1.716
1.716
1.691
1.696
1.711
1.706
1.701
1.701
1.72
1.735
1.716
1.72
1.745
1.76
1.75
1.74
1.745
1.755
1.735
1.711
1.72
1.74
1.735
1.725
1.73
1.755
1.76
1.74
1.745
1.764
1.76
1.745
1.74
1.75
1.755
1.735
1.73
1.75
1.764
1.76
1.755
1.76
1.779
1.764
1.74
1.745
1.755
1.745
1.725
1.72
1.73
1.73
1.701
1.706
1.725
1.72
1.711
1.696
1.706
1.706
1.676
1.662
1.672
1.672
1.662
1.657
1.662
1.681
1.662
1.637
1.642
1.657
1.652
1.637
1.637
1.657
1.652
1.628
1.632
1.652
1.652
1.637
1.632
1.642
1.657
1.637
1.632
1.652
1.657
1.647
1.637
1.642
1.662
1.647
1.628
1.647
1.667
1.662
1.652
1.652
1.672
1.667
1.642
1.647
1.657
1.657
1.642
1.637
1.652
1.667
1.642
1.642
1.667
1.676
1.662
1.647
1.652
1.667
1.647
1.632
1.647
1.662
1.652
1.642
1.647
1.672
1.672
1.647
1.652
1.667
1.667
1.652
1.647
1.662
1.662
1.628
1.623
1.647
1.662
1.657
1.647
1.662
1.681
1.672
1.652
1.662
1.667
1.652
1.637
1.637
1.657
1.647
1.623
1.637
1.662
1.667
1.657
1.652
1.662
1.672
1.647
1.642
1.667
1.676
1.672
1.672
1.686
1.706
1.691
1.681
1.701
1.72
1.716
1.706
1.716
1.735
1.73
1.706
1.706
1.72
1.711
1.691
1.681
1.691
1.691
1.667
1.652
1.667
1.667
1.652
1.632
1.632
1.642
1.628
1.618
1.632
1.652
1.647
1.632
1.632
1.647
1.642
1.618
1.623
1.642
1.637
1.618
1.603
1.603
1.598
1.559
1.54
1.549
1.559
1.569
1.603
1.676
1.779
1.862
1.95
2.063
2.16
2.214
2.239
2.248
2.248
2.195
2.102
2.023
1.955
1.862
1.769
1.696
1.657
1.628
1.584
1.574
1.598
1.618
1.623
1.623
1.632
1.647
1.623
1.603
1.613
1.623
1.618
1.613
1.618
1.637
1.632
1.603
1.608
1.623
1.618
1.613
1.603
1.618
1.623
1.603
1.603
1.628
1.647
1.642
1.642
1.652
1.667
1.647
1.632
1.642
1.652
1.642
1.632
1.628
1.647
1.647
1.628
1.632
1.647
1.647
1.632
1.628
1.652
1.662
1.647
1.647
1.672
1.681
1.672
1.662
1.667
1.681
1.662
1.642
1.657
1.676
1.672
1.667
1.676
1.701
1.701
1.676
1.681
1.706
1.701
1.696
1.691
1.706
1.711
1.691
1.686
1.706
1.716
1.711
1.706
1.716
1.73
1.716
1.701
1.716
1.73
1.72
1.716
1.716
1.74
1.74
1.716
1.72
1.735
1.73
1.716
1.711
1.725
1.735
1.706
1.701
1.716
1.72
1.711
1.696
1.701
1.716
1.696
1.681
1.701
1.716
1.711
1.701
1.706
1.716
1.706
1.672
1.672
1.681
1.672
1.652
1.642
1.657
1.657
1.632
1.623
1.642
1.647
1.637
1.628
1.637
1.652
1.628
1.613
1.628
1.642
1.637
1.623
1.623
1.637
1.632
1.608
1.613
1.637
1.642
1.632
1.632
1.647
1.657
1.632
1.628
1.642
1.657
1.647
1.642
1.652
1.667
1.652
1.632
1.647
1.657
1.647
1.632
1.632
1.652
1.647
1.628
1.637
1.657
1.657
1.647
1.642
1.667
1.672
1.647
1.642
1.657
1.652
1.642
1.623
1.632
1.647
1.637
1.628
1.652
1.672
1.672
1.662
1.667
1.681
1.672
1.642
1.642
1.652
1.642
1.628
1.623
1.637
1.642
1.613
1.613
1.642
1.652
1.647
1.642
1.657
1.676
1.662
1.647
1.662
1.676
1.667
1.652
1.657
1.672
1.676
1.662
1.681
1.706
1.711
1.701
1.696
1.716
1.72
1.691
1.686
1.706
1.716
1.711
1.701
1.711
1.72
1.701
1.676
1.686
1.691
1.672
1.652
1.652
1.667
1.662
1.632
1.632
1.647
1.642
1.628
1.618
1.628
1.637
1.618
1.618
1.637
1.647
1.637
1.628
1.632
1.642
1.618
1.593
1.598
1.603
1.584
1.554
1.544
1.559
1.559
1.564
1.618
1.716
1.818
1.931
2.043
2.16
2.248
2.283
2.302
2.312
2.273
2.199
2.102
2.014
1.931
1.823
1.725
1.672
1.637
1.598
1.574
1.579
1.603
1.613
1.603
1.628
1.647
1.642
1.628
1.618
1.623
1.623
1.598
1.598
1.618
1.623
1.613
1.603
1.618
1.632
1.618
1.608
1.623
1.637
1.628
1.613
1.613
1.628
1.623
1.603
1.618
1.642
1.642
1.632
1.628
1.642
1.647
1.618
1.613
1.632
1.642
1.632
1.623
1.637
1.652
1.637
1.632
1.652
1.672
1.662
1.647
1.647
1.667
1.657
1.637
1.642
1.667
1.672
1.667
1.672
1.696
1.706
1.676
1.676
1.686
1.681
1.676
1.672
1.691
1.706
1.691
1.681
1.701
1.716
1.706
1.691
1.701
1.725
1.725
1.706
1.716
1.735
1.735
1.716
1.706
1.716
1.716
1.691
1.696
1.725
1.74
1.735
1.725
1.73
1.74
1.72
1.706
1.716
1.73
1.72
1.711
1.711
1.73
1.716
1.686
1.691
1.706
1.701
1.691
1.691
1.711
1.716
1.691
1.681
1.696
1.701
1.686
1.672
1.681
1.686
1.662
1.637
1.642
1.652
1.642
1.632
1.642
1.667
1.662
1.647
1.662
1.681
1.676
1.662
1.647
1.652
1.647
1.618
1.618
1.637
1.637
1.628
1.618
1.632
1.647
1.628
1.618
1.628
1.642
1.637
1.628
1.632
1.652
1.652
1.632
1.637
1.652
1.647
1.637
1.637
1.662
1.662
1.647
1.652
1.681
1.686
1.672
1.657
1.667
1.676
1.657
1.637
1.642
1.657
1.647
1.642
1.647
1.667
1.657
1.637
1.642
1.662
1.662
1.647
1.647
1.662
1.672
1.642
1.642
1.662
1.662
1.647
1.632
1.642
1.652
1.637
1.628
1.642
1.657
1.647
1.642
1.647
1.667
1.657
1.637
1.647
1.672
1.676
1.667
1.662
1.672
1.672
1.642
1.637
1.652
1.667
1.662
1.662
1.676
1.691
1.672
1.657
1.676
1.696
1.691
1.691
1.701
1.73
1.73
1.716
1.725
1.735
1.73
1.716
1.716
1.735
1.74
1.711
1.701
1.716
1.716
1.696
1.681
1.686
1.691
1.662
1.647
1.657
1.667
1.652
1.632
1.632
1.647
1.642
1.623
1.637
1.662
1.662
1.652
1.647
1.657
1.657
1.623
1.613
1.623
1.618
1.588
1.564
1.564
1.564
1.544
1.535
1.574
1.632
1.706
1.799
1.926
2.063
2.165
2.239
2.302
2.346
2.336
2.297
2.239
2.17
2.077
1.96
1.872
1.808
1.74
1.672
1.618
1.608
1.613
1.603
1.608
1.642
1.667
1.667
1.647
1.637
1.642
1.623
1.598
1.608
1.632
1.632
1.628
1.628
1.637
1.637
1.608
1.608
1.628
1.637
1.628
1.623
1.637
1.642
1.618
1.603
1.623
1.642
1.637
1.632
1.642
1.662
1.652
1.642
1.647
1.667
1.662
1.652
1.647
1.667
1.672
1.652
1.647
1.662
1.662
1.652
1.647
1.667
1.686
1.667
1.662
1.676
1.686
1.681
1.672
1.681
1.696
1.676
1.657
1.667
1.696
1.696
1.691
1.696
1.72
1.73
1.711
1.716
1.735
1.735
1.716
1.701
1.711
1.72
1.701
1.691
1.711
1.735
1.73
1.72
1.725
1.745
1.745
1.725
1.74
1.755
1.75
1.735
1.73
1.74
1.74
1.711
1.711
1.735
1.735
1.73
1.725
1.73
1.74
1.711
1.691
1.706
1.72
1.72
1.711
1.72
1.735
1.725
1.701
1.701
1.716
1.706
1.696
1.696
1.706
1.706
1.676
1.672
1.686
1.686
1.667
1.657
1.672
1.686
1.672
1.667
1.681
1.686
1.667
1.642
1.642
1.652
1.642
1.623
1.637
1.657
1.657
1.652
1.647
1.662
1.662
1.632
1.632
1.652
1.657
1.652
1.647
1.662
1.672
1.652
1.637
1.652
1.657
1.652
1.637
1.642
1.662
1.657
1.647
1.662
1.681
1.681
1.672
1.667
1.686
1.686
1.662
1.662
1.681
1.686
1.672
1.657
1.667
1.676
1.652
1.637
1.647
1.662
1.657
1.647
1.657
1.676
1.667
1.647
1.657
1.672
1.667
1.662
1.662
1.681
1.681
1.657
1.662
1.681
1.681
1.662
1.647
1.652
1.662
1.642
1.632
1.657
1.672
1.672
1.667
1.676
1.696
1.686
1.662
1.667
1.676
1.662
1.647
1.647
1.672
1.681
1.662
1.672
1.696
1.701
1.686
1.676
1.686
1.701
1.686
1.681
1.711
1.735
1.735
1.725
1.73
1.745
1.73
1.711
1.72
1.735
1.73
1.72
1.72
1.73
1.725
1.696
1.691
1.706
1.696
1.676
1.662
1.672
1.681
1.657
1.647
1.662
1.672
1.662
1.657
1.662
1.681
1.662
1.637
1.642
1.657
1.647
1.637
1.637
1.647
1.642
1.603
1.593
1.598
1.584
1.564
1.559
1.593
1.642
1.691
1.779
1.921
2.058
2.165
2.248
2.317
2.366
2.356
2.302
2.248
2.185
2.092
1.984
1.891
1.823
1.755
1.676
1.637
1.632
1.628
1.618
1.623
1.652
1.672
1.652
1.637
1.647
1.652
1.632
1.613
1.618
1.637
1.628
1.608
1.618
1.632
1.628
1.613
1.613
1.628
1.632
1.618
1.623
1.647
1.647
1.637
1.628
1.637
1.647
1.628
1.618
1.637
1.652
1.647
1.647
1.657
1.681
1.672
1.652
1.662
1.676
1.667
1.647
1.647
1.667
1.672
1.652
1.657
1.681
1.686
1.676
1.667
1.676
1.686
1.667
1.652
1.667
1.681
1.672
1.662
1.667
1.691
1.686
1.667
1.691
1.716
1.72
1.716
1.716
1.73
1.725
1.696
1.691
1.706
1.706
1.696
1.701
1.725
1.75
1.735
1.735
1.755
1.764
1.745
1.72
1.716
1.73
1.716
1.701
1.716
1.74
1.74
1.735
1.73
1.745
1.74
1.716
1.716
1.73
1.73
1.716
1.711
1.725
1.74
1.716
1.701
1.711
1.711
1.701
1.681
1.696
1.711
1.701
1.681
1.691
1.711
1.711
1.706
1.706
1.716
1.711
1.681
1.681
1.701
1.696
1.676
1.662
1.662
1.657
1.623
1.608
1.628
1.642
1.632
1.628
1.642
1.667
1.662
1.647
1.657
1.672
1.662
1.647
1.642
1.657
1.657
1.632
1.637
1.662
1.667
1.657
1.652
1.667
1.681
1.667
1.657
1.672
1.676
1.662
1.652
1.652
1.667
1.652
1.637
1.642
1.662
1.657
1.647
1.652
1.676
1.676
1.647
1.647
1.667
1.667
1.652
1.647
1.662
1.672
1.652
1.642
1.662
1.667
1.662
1.652
1.662
1.672
1.657
1.642
1.667
1.686
1.681
1.667
1.657
1.667
1.662
1.637
1.632
1.652
1.662
1.657
1.652
1.672
1.681
1.662
1.652
1.662
1.662
1.647
1.632
1.642
1.667
1.652
1.637
1.657
1.681
1.681
1.672
1.672
1.691
1.686
1.662
1.667
1.691
1.691
1.686
1.676
1.691
1.711
1.696
1.696
1.716
1.73
1.725
1.711
1.716
1.735
1.72
1.706
1.72
1.74
1.735
1.725
1.72
1.73
1.72
1.676
1.667
1.681
1.681
1.662
1.657
1.667
1.676
1.657
1.647
1.672
1.681
1.672
1.657
1.662
1.676
1.662
1.642
1.647
1.652
1.637
1.618
1.613
1.618
1.608
1.569
1.554
1.564
1.554
1.554
1.574
1.632
1.716
1.799
1.911
2.058
2.185
2.273
2.331
2.37
2.39
2.346
2.278
2.214
2.131
2.023
1.916
1.823
1.76
1.696
1.632
1.613
1.618
1.623
1.623
1.632
1.657
1.672
1.637
1.618
1.628
1.632
1.623
1.613
1.618
1.642
1.628
1.613
1.623
1.637
1.628
1.613
1.618
1.637
1.637
1.618
1.623
1.642
1.642
1.632
1.628
1.647
1.662
1.642
1.632
1.652
1.667
1.657
1.642
1.647
1.662
1.642
1.628
1.647
1.672
1.667
1.662
1.667
1.686
1.681
1.652
1.652
1.672
1.672
1.657
1.657
1.676
1.691
1.667
1.667
1.686
1.701
1.696
1.691
1.706
1.725
1.716
1.696
1.701
1.711
1.711
1.701
1.711
1.735
1.74
1.725
1.735
1.764
1.764
1.745
1.735
1.745
1.755
1.735
1.725
1.745
1.75
1.735
1.72
1.725
1.745
1.735
1.72
1.74
1.76
1.76
1.745
1.74
1.75
1.74
1.706
1.701
1.72
1.72
1.711
1.701
1.716
1.73
1.711
1.706
1.725
1.735
1.73
1.72
1.73
1.74
1.725
1.711
1.716
1.72
1.711
1.696
1.701
1.725
1.725
1.701
1.701
1.716
1.706
1.686
1.667
1.672
1.667
1.637
1.632
1.652
1.667
1.657
1.647
1.652
1.667
1.652
1.632
1.647
1.667
1.667
1.657
1.662
1.681
1.676
1.647
1.652
1.672
1.672
1.667
1.667
1.686
1.691
1.662
1.652
1.672
1.681
1.667
1.657
1.667
1.681
1.672
1.657
1.672
1.686
1.681
1.667
1.667
1.681
1.676
1.657
1.662
1.686
1.691
1.676
1.672
1.681
1.681
1.657
1.647
1.672
1.681
1.672
1.667
1.681
1.701
1.681
1.662
1.667
1.681
1.672
1.657
1.657
1.676
1.676
1.662
1.676
1.701
1.701
1.686
1.686
1.706
1.72
1.701
1.696
1.716
1.72
1.711
1.706
1.72
1.74
1.72
1.706
1.716
1.735
1.725
1.716
1.711
1.73
1.725
1.706
1.711
1.735
1.73
1.716
1.701
1.706
1.706
1.676
1.662
1.676
1.676
1.662
1.652
1.652
1.667
1.647
1.628
1.642
1.657
1.652
1.642
1.642
1.662
1.662
1.642
1.647
1.672
1.662
1.647
1.637
1.642
1.637
1.608
1.593
1.608
1.623
1.632
1.657
1.725
1.808
1.862
1.916
1.989
2.048
2.072
2.077
2.072
2.067
2.023
1.95
1.896
1.848
1.784
1.711
1.647
1.623
1.608
1.574
1.579
1.613
1.637
1.642
1.642
1.657
1.672
1.647
1.632
1.652
1.672
1.672
1.667
1.662
1.676
1.667
1.637
1.637
1.652
1.647
1.637
1.632
1.652
1.662
1.637
1.628
1.642
1.642
1.632
1.618
1.632
1.652
1.647
1.637
1.657
1.676
1.667
1.657
1.657
1.676
1.676
1.652
1.652
1.672
1.667
1.657
1.662
1.681
1.691
1.672
1.672
1.696
1.711
1.706
1.701
1.701
1.711
1.686
1.662
1.672
1.681
1.676
1.672
1.681
1.711
1.716
1.706
1.716
1.74
1.74
1.725
1.72
1.735
1.735
1.711
1.711
1.73
1.74
1.73
1.73
1.745
1.764
1.75
1.735
1.75
1.76
1.75
1.735
1.73
1.745
1.74
1.72
1.725
1.745
1.745
1.735
1.725
1.735
1.74
1.716
1.716
1.735
1.75
1.735
1.72
1.72
1.725
1.701
1.681
1.691
1.701
1.691
1.676
1.681
1.706
1.701
1.681
1.681
1.696
1.691
1.676
1.662
1.672
1.672
1.642
1.628
1.642
1.647
1.632
1.628
1.637
1.657
1.642
1.628
1.637
1.642
1.632
1.623
1.623
1.637
1.632
1.608
1.618
1.642
1.642
1.637
1.632
1.647
1.647
1.618
1.613
1.632
1.642
1.632
1.628
1.647
1.672
1.667
1.657
1.676
1.686
1.681
1.662
1.657
1.667
1.652
1.628
1.637
1.652
1.647
1.637
1.628
1.637
1.642
1.623
1.628
1.652
1.662
1.662
1.652
1.662
1.672
1.647
1.623
1.637
1.657
1.652
1.642
1.652
1.672
1.662
1.642
1.652
1.672
1.662
1.647
1.642
1.657
1.662
1.628
1.618
1.632
1.632
1.623
1.618
1.632
1.652
1.637
1.632
1.652
1.672
1.662
1.652
1.652
1.672
1.672
1.652
1.662
1.681
1.676
1.672
1.681
1.706
1.711
1.686
1.686
1.706
1.716
1.701
1.691
1.701
1.716
1.701
1.691
1.706
1.716
1.696
1.672
1.667
1.667
1.647
1.618
1.628
1.657
1.657
1.647
1.637
1.647
1.647
1.613
1.603
1.613
1.613
1.598
1.593
1.613
1.632
1.618
1.603
1.613
1.618
1.598
1.574
1.559
1.564
1.554
1.535
1.564
1.623
1.681
1.755
1.852
1.979
2.092
2.155
2.214
2.273
2.292
2.263
2.209
2.151
2.077
1.97
1.867
1.789
1.72
1.647
1.593
1.574
1.579
1.574
1.569
1.593
1.628
1.637
1.632
1.628
1.637
1.632
1.598
1.588
1.603
1.608
1.603
1.593
1.608
1.628
1.613
1.608
1.628
1.637
1.623
1.608
1.608
1.623
1.618
1.603
1.618
1.642
1.647
1.637
1.632
1.647
1.642
1.613
1.608
1.628
1.632
1.623
1.618
1.632
1.647
1.628
1.618
1.632
1.637
1.632
1.628
1.637
1.657
1.662
1.647
1.662
1.686
1.686
1.676
1.672
1.686
1.686
1.657
1.652
1.667
1.676
1.662
1.652
1.667
1.686
1.672
1.667
1.696
1.716
1.716
1.706
1.706
1.72
1.711
1.686
1.691
1.711
1.711
1.701
1.701
1.72
1.725
1.701
1.701
1.716
1.72
1.711
1.701
1.716
1.73
1.711
1.701
1.72
1.73
1.72
1.706
1.706
1.725
1.716
1.691
1.696
1.716
1.716
1.701
1.696
1.711
1.716
1.686
1.681
1.696
1.696
1.681
1.672
1.681
1.691
1.667
1.652
1.667
1.676
1.662
1.642
1.637
1.647
1.637
1.613
1.623
1.637
1.637
1.628
1.628
1.642
1.642
1.618
1.618
1.637
1.642
1.637
1.628
1.632
1.647
1.628
1.618
1.628
1.637
1.623
1.608
1.613
1.632
1.628
1.608
1.618
1.637
1.637
1.628
1.628
1.647
1.647
1.623
1.618
1.628
1.632
1.628
1.628
1.647
1.662
1.642
1.637
1.662
1.672
1.662
1.652
1.652
1.667
1.657
1.628
1.632
1.642
1.632
1.613
1.613
1.637
1.642
1.623
1.632
1.657
1.662
1.652
1.637
1.647
1.657
1.632
1.623
1.642
1.652
1.642
1.632
1.637
1.657
1.647
1.628
1.632
1.652
1.652
1.642
1.632
1.647
1.647
1.618
1.618
1.642
1.647
1.647
1.647
1.672
1.686
1.667
1.652
1.662
1.667
1.662
1.657
1.672
1.701
1.696
1.686
1.706
1.72
1.716
1.701
1.691
1.701
1.696
1.672
1.676
1.706
1.711
1.701
1.691
1.696
1.701
1.667
1.647
1.652
1.657
1.642
1.628
1.632
1.652
1.642
1.618
1.628
1.642
1.642
1.632
1.623
1.642
1.642
1.618
1.623
1.637
1.637
1.628
1.613
1.613
1.608
1.569
1.54
1.54
1.54
1.535
1.544
1.593
1.676
1.764
1.867
2.004
2.141
2.234
2.287
2.317
2.331
2.302
2.219
2.141
2.067
1.975
1.877
1.784
1.725
1.686
1.623
1.584
1.593
1.603
1.603
1.603
1.623
1.647
1.642
1.613
1.618
1.623
1.608
1.593
1.593
1.618
1.623
1.603
1.603
1.623
1.623
1.613
1.603
1.618
1.632
1.613
1.603
1.618
1.628
1.613
1.593
1.598
1.613
1.613
