Num1
1.647
1.667
1.672
1.662
1.652
1.657
1.672
1.657
1.642
1.657
1.667
1.667
1.652
1.662
1.681
1.672
1.647
1.652
1.672
1.672
1.657
1.662
1.681
1.691
1.667
1.662
1.686
1.696
1.681
1.662
1.662
1.672
1.652
1.637
1.657
1.676
1.681
1.681
1.696
1.725
1.716
1.686
1.681
1.696
1.686
1.676
1.676
1.696
1.701
1.676
1.667
1.681
1.686
1.672
1.662
1.672
1.686
1.672
1.662
1.681
1.696
1.696
1.676
1.676
1.691
1.686
1.667
1.676
1.696
1.696
1.686
1.676
1.691
1.696
1.672
1.672
1.701
1.716
1.711
1.711
1.73
1.75
1.735
1.72
1.735
1.725
1.701
1.681
1.686
1.686
1.667
1.647
1.647
1.662
1.657
1.642
1.652
1.672
1.672
1.657
1.647
1.657
1.652
1.628
1.628
1.647
1.652
1.647
1.642
1.662
1.672
1.652
1.632
1.637
1.642
1.628
1.618
1.628
1.647
1.637
1.628
1.642
1.662
1.667
1.657
1.657
1.676
1.672
1.647
1.637
1.647
1.642
1.628
1.618
1.628
1.642
1.628
1.623
1.642
1.657
1.652
1.642
1.642
1.652
1.642
1.623
1.632
1.652
1.657
1.647
1.647
1.662
1.662
1.637
1.632
1.642
1.642
1.632
1.623
1.637
1.652
1.637
1.632
1.652
1.672
1.667
1.662
1.667
1.686
1.672
1.647
1.647
1.662
1.652
1.637
1.637
1.657
1.662
1.647
1.647
1.672
1.681
1.672
1.662
1.667
1.672
1.647
1.632
1.647
1.662
1.657
1.652
1.662
1.676
1.667
1.647
1.652
1.662
1.657
1.642
1.637
1.657
1.657
1.637
1.637
1.657
1.662
1.652
1.647
1.662
1.672
1.652
1.642
1.657
1.667
1.657
1.642
1.652
1.667
1.652
1.637
1.647
1.672
1.676
1.667
1.667
1.686
1.681
1.657
1.652
1.667
1.667
1.647
1.637
1.642
1.652
1.632
1.628
1.647
1.667
1.667
1.662
1.667
1.686
1.676
1.657
1.657
1.667
1.662
1.642
1.637
1.647
1.652
1.628
1.623
1.642
1.647
1.637
1.632
1.647
1.662
1.647
1.637
1.657
1.681
1.681
1.672
1.681
1.701
1.691
1.672
1.691
1.711
1.716
1.706
1.711
1.73
1.74
1.725
1.73
1.75
1.755
1.745
1.74
1.75
1.76
1.74
1.72
1.725
1.73
1.716
1.701
1.701
1.711
1.696
1.672
1.672
1.681
1.672
1.647
1.642
1.652
1.652
1.623
1.618
1.628
1.628
1.608
1.593
1.603
1.613
1.593
1.584
1.603
1.623
1.618
1.608
1.613
1.628
1.618
1.593
1.603
1.618
1.618
1.608
1.603
1.623
1.632
1.623
1.642
1.681
1.711
1.725
1.745
1.779
1.808
1.808
1.823
1.867
1.911
1.94
1.955
1.984
2.004
1.979
1.926
1.882
1.828
1.745
1.652
1.584
1.549
1.52
1.481
1.471
1.496
1.525
1.544
1.569
1.613
1.647
1.647
1.647
1.667
1.676
1.667
1.652
1.652
1.667
1.662
1.647
1.662
1.686
1.686
1.672
1.672
1.686
1.686
1.657
1.657
1.676
1.686
1.676
1.676
1.691
1.706
1.691
1.676
1.691
1.701
1.691
1.676
1.686
1.696
1.686
1.667
1.681
1.701
1.706
1.696
1.696
1.716
1.716
1.696
1.696
1.711
1.711
1.696
1.686
1.701
1.711
1.696
1.691
1.711
1.725
1.72
1.706
1.711
1.73
1.72
1.706
1.716
1.74
1.745
1.735
1.735
1.75
1.75
1.725
1.725
1.745
1.75
1.74
1.74
1.76
1.779
1.76
1.75
1.76
1.769
1.76
1.745
1.75
1.769
1.76
1.745
1.755
1.774
1.774
1.764
1.764
1.779
1.779
1.755
1.75
1.764
1.764
1.755
1.745
1.755
1.76
1.74
1.73
1.745
1.76
1.76
1.75
1.76
1.774
1.75
1.72
1.72
1.725
1.716
1.701
1.696
1.716
1.72
1.701
1.706
1.72
1.72
1.701
1.686
1.691
1.691
1.662
1.647
1.667
1.676
1.672
1.657
1.667
1.686
1.676
1.652
1.657
1.667
1.662
1.642
1.642
1.662
1.662
1.637
1.637
1.657
1.667
1.657
1.657
1.672
1.681
1.657
1.642
1.657
1.676
1.667
1.657
1.662
1.676
1.667
1.647
1.657
1.681
1.681
1.667
1.667
1.676
1.672
1.642
1.637
1.652
1.647
1.632
1.623
1.637
1.652
1.637
1.632
1.647
1.662
1.657
1.642
1.652
1.676
1.672
1.652
1.667
1.681
1.676
1.662
1.662
1.676
1.676
1.652
1.652
1.676
1.681
1.676
1.672
1.681
1.691
1.667
1.647
1.662
1.672
1.667
1.662
1.667
1.686
1.676
1.652
1.662
1.676
1.672
1.652
1.652
1.672
1.676
1.657
1.662
1.681
1.686
1.676
1.672
1.686
1.691
1.672
1.657
1.672
1.686
1.676
1.667
1.676
1.691
1.676
1.657
1.657
1.672
1.667
1.652
1.647
1.657
1.657
1.632
1.637
1.662
1.667
1.657
1.647
1.662
1.672
1.652
1.642
1.657
1.667
1.662
1.647
1.657
1.681
1.672
1.652
1.662
1.681
1.686
1.676
1.676
1.691
1.691
1.672
1.672
1.696
1.706
1.696
1.691
1.706
1.725
1.706
1.696
1.716
1.725
1.716
1.706
1.72
1.74
1.73
1.706
1.706
1.711
1.696
1.662
1.647
1.652
1.647
1.623
1.623
1.647
1.662
1.657
1.662
1.681
1.696
1.681
1.667
1.681
1.681
1.662
1.637
1.632
1.637
1.618
1.598
1.603
1.623
1.623
1.618
1.623
1.642
1.642
1.628
1.632
1.657
1.662
1.652
1.647
1.662
1.676
1.672
1.672
1.706
1.735
1.75
1.76
1.784
1.823
1.833
1.838
1.872
1.916
1.94
1.94
1.945
1.95
1.935
1.872
1.818
1.769
1.696
1.613
1.544
1.515
1.496
1.461
1.447
1.476
1.515
1.54
1.564
1.603
1.642
1.652
1.642
1.657
1.676
1.672
1.657
1.652
1.672
1.667
1.647
1.647
1.662
1.667
1.652
1.642
1.652
1.662
1.642
1.632
1.652
1.662
1.657
1.647
1.657
1.676
1.672
1.657
1.667
1.681
1.676
1.667
1.672
1.691
1.691
1.667
1.667
1.686
1.691
1.681
1.676
1.686
1.696
1.676
1.667
1.686
1.701
1.691
1.681
1.691
1.706
1.691
1.672
1.681
1.706
1.706
1.696
1.701
1.72
1.72
1.701
1.701
1.716
1.716
1.701
1.691
1.711
1.72
1.706
1.701
1.725
1.74
1.735
1.725
1.73
1.75
1.74
1.72
1.735
1.75
1.75
1.745
1.75
1.774
1.774
1.75
1.745
1.76
1.764
1.75
1.745
1.76
1.769
1.75
1.74
1.76
1.769
1.755
1.735
1.74
1.75
1.735
1.716
1.725
1.745
1.74
1.72
1.711
1.72
1.72
1.691
1.686
1.701
1.701
1.691
1.681
1.691
1.696
1.667
1.652
1.662
1.672
1.657
1.642
1.647
1.662
1.642
1.623
1.632
1.647
1.647
1.637
1.637
1.657
1.662
1.637
1.637
1.657
1.662
1.652
1.642
1.652
1.657
1.628
1.613
1.628
1.637
1.623
1.618
1.628
1.642
1.632
1.613
1.623
1.642
1.637
1.623
1.623
1.642
1.642
1.623
1.623
1.642
1.647
1.632
1.628
1.642
1.657
1.637
1.628
1.642
1.652
1.642
1.632
1.637
1.657
1.642
1.618
1.623
1.642
1.637
1.628
1.632
1.652
1.657
1.637
1.637
1.657
1.662
1.652
1.642
1.662
1.672
1.652
1.647
1.672
1.691
1.681
1.667
1.662
1.672
1.657
1.637
1.647
1.667
1.667
1.652
1.652
1.672
1.667
1.642
1.637
1.652
1.652
1.642
1.637
1.652
1.667
1.652
1.642
1.662
1.667
1.657
1.642
1.642
1.652
1.637
1.618
1.628
1.652
1.652
1.642
1.647
1.672
1.676
1.652
1.652
1.667
1.672
1.657
1.652
1.667
1.676
1.657
1.652
1.667
1.681
1.672
1.662
1.667
1.686
1.676
1.657
1.662
1.681
1.676
1.662
1.662
1.676
1.681
1.662
1.667
1.691
1.701
1.691
1.686
1.706
1.716
1.696
1.686
1.701
1.716
1.706
1.701
1.716
1.73
1.72
1.696
1.701
1.716
1.701
1.681
1.672
1.681
1.672
1.637
1.637
1.652
1.657
1.647
1.642
1.657
1.672
1.652
1.637
1.652
1.662
1.652
1.642
1.647
1.667
1.657
1.637
1.647
1.662
1.657
1.642
1.637
1.652
1.647
1.628
1.628
1.652
1.657
1.647
1.632
1.647
1.657
1.637
1.637
1.672
1.701
1.711
1.72
1.75
1.794
1.804
1.813
1.852
1.906
1.945
1.97
2.004
2.033
2.028
1.979
1.931
1.882
1.804
1.701
1.613
1.564
1.525
1.476
1.457
1.476
1.505
1.53
1.549
1.588
1.628
1.632
1.623
1.642
1.657
1.647
1.628
1.628
1.642
1.647
1.628
1.632
1.652
1.657
1.642
1.632
1.647
1.657
1.637
1.628
1.652
1.662
1.657
1.642
1.652
1.672
1.657
1.637
1.647
1.667
1.662
1.652
1.652
1.676
1.676
1.657
1.657
1.676
1.681
1.672
1.672
1.686
1.696
1.672
1.662
1.676
1.686
1.681
1.672
1.681
1.701
1.691
1.676
1.686
1.701
1.696
1.681
1.686
1.706
1.711
1.691
1.691
1.716
1.72
1.706
1.701
1.711
1.72
1.701
1.696
1.716
1.73
1.725
1.72
1.73
1.75
1.735
1.72
1.725
1.745
1.745
1.735
1.74
1.76
1.76
1.735
1.735
1.75
1.755
1.745
1.735
1.75
1.76
1.74
1.735
1.755
1.764
1.755
1.745
1.75
1.764
1.755
1.74
1.75
1.764
1.76
1.745
1.74
1.76
1.755
1.725
1.716
1.73
1.73
1.711
1.701
1.711
1.711
1.681
1.667
1.676
1.681
1.667
1.652
1.662
1.676
1.662
1.642
1.652
1.667
1.662
1.642
1.642
1.652
1.647
1.613
1.613
1.632
1.637
1.628
1.628
1.647
1.657
1.637
1.628
1.642
1.652
1.642
1.632
1.637
1.657
1.637
1.613
1.618
1.632
1.628
1.623
1.623
1.647
1.652
1.637
1.642
1.662
1.667
1.647
1.632
1.642
1.647
1.628
1.623
1.642
1.657
1.652
1.637
1.647
1.667
1.652
1.628
1.637
1.652
1.647
1.632
1.632
1.647
1.647
1.623
1.628
1.652
1.657
1.652
1.652
1.672
1.681
1.662
1.652
1.662
1.667
1.657
1.637
1.647
1.662
1.647
1.632
1.647
1.667
1.667
1.652
1.652
1.672
1.672
1.652
1.657
1.681
1.686
1.667
1.662
1.676
1.686
1.662
1.652
1.667
1.676
1.667
1.657
1.672
1.691
1.676
1.662
1.672
1.686
1.681
1.667
1.667
1.676
1.676
1.647
1.652
1.672
1.672
1.657
1.652
1.662
1.672
1.652
1.647
1.667
1.676
1.672
1.657
1.667
1.686
1.681
1.667
1.681
1.701
1.696
1.686
1.686
1.701
1.701
1.676
1.676
1.701
1.706
1.701
1.706
1.725
1.74
1.72
1.706
1.725
1.73
1.72
1.706
1.711
1.725
1.716
1.701
1.711
1.73
1.725
1.711
1.711
1.72
1.706
1.672
1.667
1.681
1.681
1.667
1.662
1.676
1.691
1.667
1.652
1.672
1.681
1.667
1.657
1.667
1.686
1.672
1.652
1.657
1.672
1.667
1.652
1.652
1.672
1.672
1.647
1.652
1.676
1.681
1.672
1.662
1.676
1.681
1.657
1.647
1.667
1.681
1.681
1.681
1.706
1.74
1.75
1.755
1.789
1.833
1.867
1.891
1.935
1.994
2.028
2.033
2.043
2.053
2.023
1.96
1.887
1.823
1.745
1.642
1.564
1.53
1.51
1.491
1.486
1.51
1.554
1.574
1.588
1.628
1.667
1.676
1.672
1.672
1.691
1.686
1.657
1.657
1.672
1.672
1.662
1.652
1.672
1.681
1.662
1.652
1.672
1.681
1.672
1.667
1.676
1.691
1.681
1.667
1.676
1.696
1.696
1.681
1.681
1.701
1.696
1.676
1.681
1.706
1.711
1.701
1.696
1.711
1.72
1.701
1.691
1.706
1.716
1.706
1.696
1.706
1.725
1.716
1.696
1.706
1.725
1.72
1.706
1.706
1.725
1.725
1.706
1.711
1.73
1.735
1.725
1.72
1.74
1.75
1.725
1.72
1.735
1.75
1.74
1.735
1.75
1.769
1.755
1.74
1.755
1.769
1.769
1.76
1.76
1.779
1.779
1.755
1.755
1.774
1.779
1.769
1.764
1.784
1.799
1.779
1.774
1.789
1.799
1.784
1.764
1.764
1.779
1.764
1.745
1.76
1.779
1.774
1.76
1.76
1.779
1.774
1.75
1.745
1.76
1.76
1.74
1.725
1.735
1.735
1.706
1.696
1.706
1.711
1.701
1.691
1.706
1.716
1.696
1.667
1.672
1.681
1.672
1.657
1.652
1.667
1.667
1.647
1.642
1.657
1.657
1.642
1.637
1.652
1.662
1.642
1.632
1.652
1.662
1.652
1.647
1.652
1.667
1.657
1.642
1.657
1.676
1.672
1.652
1.652
1.662
1.657
1.632
1.637
1.652
1.652
1.642
1.637
1.657
1.667
1.642
1.637
1.657
1.667
1.662
1.652
1.662
1.676
1.657
1.632
1.637
1.652
1.647
1.637
1.637
1.657
1.657
1.642
1.647
1.672
1.681
1.672
1.667
1.681
1.686
1.667
1.657
1.672
1.676
1.667
1.647
1.652
1.667
1.652
1.637
1.652
1.672
1.672
1.662
1.667
1.686
1.691
1.667
1.667
1.681
1.681
1.672
1.667
1.681
1.691
1.667
1.657
1.672
1.681
1.667
1.657
1.662
1.681
1.672
1.652
1.667
1.681
1.676
1.667
1.672
1.691
1.686
1.662
1.662
1.676
1.676
1.657
1.647
1.662
1.676
1.657
1.652
1.676
1.696
1.691
1.681
1.686
1.701
1.681
1.662
1.672
1.686
1.686
1.676
1.681
1.696
1.691
1.667
1.672
1.691
1.696
1.681
1.676
1.691
1.706
1.686
1.676
1.696
1.706
1.701
1.696
1.711
1.735
1.73
1.72
1.735
1.75
1.745
1.725
1.72
1.735
1.725
1.696
1.691
1.706
1.706
1.686
1.676
1.691
1.691
1.662
1.652
1.662
1.667
1.657
1.647
1.657
1.676
1.667
1.647
1.662
1.681
1.676
1.667
1.672
1.686
1.681
1.652
1.642
1.657
1.657
1.637
1.632
1.647
1.657
1.637
1.632
1.657
1.667
1.657
1.647
1.652
1.667
1.657
1.652
1.681
1.72
1.74
1.75
1.779
1.828
1.857
1.872
1.911
1.975
2.019
2.038
2.048
2.058
2.043
1.979
1.911
1.852
1.769
1.672
1.584
1.535
1.51
1.476
1.457
1.481
1.52
1.549
1.569
1.603
1.647
1.667
1.657
1.667
1.681
1.681
1.667
1.657
1.667
1.672
1.642
1.632
1.642
1.647
1.642
1.632
1.647
1.667
1.657
1.642
1.657
1.676
1.676
1.667
1.672
1.691
1.686
1.662
1.662
1.676
1.676
1.662
1.652
1.667
1.681
1.667
1.667
1.691
1.706
1.701
1.691
1.701
1.711
1.696
1.681
1.691
1.706
1.701
1.691
1.691
1.711
1.706
1.681
1.681
1.701
1.711
1.701
1.701
1.72
1.735
1.72
1.716
1.735
1.745
1.735
1.73
1.74
1.755
1.74
1.725
1.735
1.75
1.745
1.73
1.735
1.75
1.75
1.73
1.735
1.755
1.76
1.74
1.735
1.755
1.764
1.745
1.74
1.764
1.784
1.779
1.774
1.784
1.794
1.774
1.75
1.76
1.774
1.769
1.76
1.76
1.779
1.779
1.76
1.76
1.774
1.774
1.755
1.745
1.764
1.769
1.745
1.735
1.74
1.74
1.72
1.696
1.696
1.706
1.681
1.662
1.672
1.686
1.676
1.662
1.662
1.676
1.667
1.642
1.647
1.662
1.667
1.657
1.652
1.667
1.667
1.642
1.637
1.652
1.662
1.652
1.637
1.642
1.657
1.642
1.628
1.637
1.652
1.652
1.642
1.647
1.667
1.662
1.632
1.628
1.642
1.642
1.632
1.623
1.637
1.652
1.637
1.632
1.657
1.667
1.652
1.637
1.647
1.662
1.647
1.628
1.642
1.662
1.662
1.647
1.647
1.662
1.657
1.637
1.642
1.667
1.672
1.662
1.662
1.681
1.691
1.667
1.657
1.672
1.676
1.662
1.647
1.657
1.676
1.667
1.652
1.667
1.676
1.667
1.647
1.637
1.652
1.642
1.623
1.632
1.657
1.672
1.672
1.676
1.696
1.706
1.686
1.681
1.696
1.701
1.686
1.662
1.667
1.676
1.657
1.637
1.642
1.657
1.652
1.647
1.662
1.686
1.686
1.667
1.672
1.686
1.686
1.672
1.667
1.686
1.691
1.672
1.667
1.686
1.701
1.691
1.676
1.686
1.701
1.676
1.657
1.662
1.672
1.667
1.657
1.662
1.681
1.686
1.667
1.676
1.701
1.706
1.696
1.686
1.701
1.706
1.686
1.681
1.701
1.716
1.711
1.701
1.711
1.725
1.711
1.696
1.711
1.73
1.725
1.716
1.72
1.745
1.74
1.72
1.72
1.73
1.725
1.706
1.696
1.706
1.711
1.686
1.676
1.691
1.696
1.676
1.667
1.672
1.681
1.662
1.647
1.662
1.676
1.672
1.662
1.667
1.686
1.681
1.652
1.657
1.672
1.676
1.662
1.652
1.667
1.672
1.647
1.642
1.662
1.672
1.667
1.662
1.672
1.691
1.672
1.647
1.657
1.672
1.681
1.681
1.701
1.74
1.76
1.76
1.784
1.828
1.857
1.877
1.911
1.97
2.019
2.028
2.043
2.063
2.048
1.999
1.926
1.857
1.784
1.681
1.593
1.559
1.54
1.52
1.505
1.515
1.554
1.574
1.579
1.608
1.642
1.657
1.657
1.657
1.676
1.681
1.662
1.657
1.676
1.686
1.672
1.657
1.662
1.676
1.662
1.652
1.662
1.681
1.681
1.676
1.681
1.706
1.696
1.672
1.676
1.691
1.696
1.681
1.676
1.696
1.701
1.681
1.672
1.686
1.696
1.691
1.681
1.691
1.711
1.696
1.681
1.696
1.711
1.706
1.691
1.701
1.72
1.716
1.701
1.706
1.72
1.72
1.701
1.691
1.701
1.706
1.686
1.686
1.706
1.72
1.725
1.725
1.75
1.769
1.76
1.74
1.75
1.76
1.75
1.74
1.745
1.764
1.76
1.74
1.75
1.769
1.774
1.76
1.755
1.764
1.774
1.76
1.76
1.784
1.794
1.784
1.774
1.784
1.799
1.779
1.764
1.779
1.789
1.784
1.769
1.764
1.784
1.774
1.745
1.75
1.764
1.764
1.755
1.745
1.76
1.76
1.74
1.73
1.75
1.755
1.74
1.725
1.725
1.735
1.716
1.696
1.701
1.711
1.706
1.686
1.686
1.696
1.686
1.662
1.662
1.681
1.681
1.667
1.667
1.681
1.686
1.662
1.652
1.672
1.681
1.672
1.657
1.667
1.676
1.657
1.642
1.652
1.662
1.652
1.642
1.642
1.667
1.662
1.647
1.652
1.672
1.672
1.657
1.652
1.662
1.662
1.637
1.628
1.647
1.662
1.652
1.647
1.662
1.681
1.662
1.642
1.652
1.667
1.662
1.647
1.652
1.672
1.672
1.652
1.657
1.672
1.672
1.652
1.647
1.662
1.667
1.647
1.642
1.667
1.676
1.676
1.667
1.676
1.691
1.672
1.662
1.672
1.681
1.672
1.662
1.662
1.676
1.672
1.647
1.657
1.676
1.676
1.667
1.667
1.686
1.701
1.686
1.686
1.711
1.72
1.706
1.686
1.686
1.691
1.667
1.647
1.652
1.667
1.662
1.652
1.657
1.672
1.667
1.642
1.652
1.667
1.676
1.672
1.672
1.686
1.691
1.667
1.662
1.676
1.681
1.667
1.657
1.667
1.686
1.672
1.657
1.672
1.686
1.681
1.676
1.681
1.701
1.696
1.681
1.691
1.711
1.711
1.701
1.701
1.72
1.725
1.711
1.711
1.73
1.74
1.73
1.716
1.716
1.72
1.696
1.672
1.681
1.691
1.686
1.686
1.696
1.72
1.716
1.691
1.691
1.696
1.691
1.667
1.662
1.672
1.681
1.662
1.662
1.681
1.676
1.667
1.647
1.657
1.672
1.657
1.642
1.657
1.672
1.667
1.657
1.657
1.672
1.667
1.642
1.652
1.676
1.686
1.672
1.672
1.681
1.681
1.652
1.642
1.667
1.681
1.681
1.691
1.716
1.745
1.74
1.73
1.755
1.789
1.808
1.833
1.877
1.94
1.979
1.989
2.014
2.028
2.004
1.95
1.887
1.828
1.755
1.662
1.598
1.574
1.549
1.52
1.505
1.53
1.564
1.569
1.588
1.637
1.681
1.696
1.696
1.701
1.706
1.686
1.647
1.637
1.642
1.632
1.623
1.623
1.652
1.672
1.657
1.667
1.686
1.696
1.686
1.672
1.676
1.691
1.672
1.657
1.662
1.672
1.667
1.662
1.672
1.696
1.701
1.681
1.696
1.72
1.716
1.701
1.686
1.691
1.691
1.667
1.657
1.676
1.691
1.691
1.686
1.706
1.725
1.711
1.701
1.716
1.73
1.725
1.711
1.716
1.73
1.725
1.706
1.716
1.74
1.74
1.73
1.725
1.74
1.74
1.72
1.716
1.735
1.745
1.74
1.735
1.755
1.774
1.76
1.745
1.755
1.764
1.76
1.745
1.755
1.769
1.764
1.745
1.76
1.779
1.779
1.764
1.764
1.779
1.784
1.764
1.755
1.769
1.774
1.76
1.75
1.76
1.774
1.755
1.745
1.76
1.769
1.764
1.75
1.75
1.76
1.75
1.725
1.725
1.745
1.74
1.725
1.72
1.73
1.73
1.701
1.691
1.701
1.701
1.686
1.676
1.686
1.696
1.676
1.657
1.667
1.681
1.667
1.652
1.652
1.667
1.657
1.632
1.637
1.657
1.657
1.642
1.637
1.652
1.652
1.628
1.628
1.647
1.657
1.652
1.642
1.657
1.672
1.657
1.642
1.652
1.662
1.657
1.642
1.642
1.662
1.652
1.628
1.632
1.647
1.642
1.628
1.618
1.637
1.642
1.628
1.628
1.652
1.662
1.657
1.652
1.667
1.681
1.652
1.632
1.637
1.647
1.642
1.628
1.628
1.652
1.652
1.637
1.647
1.667
1.662
1.652
1.647
1.662
1.662
1.637
1.637
1.657
1.667
1.657
1.652
1.667
1.676
1.657
1.642
