Num1
1.701
1.696
1.672
1.672
1.676
1.667
1.647
1.642
1.657
1.667
1.647
1.642
1.657
1.662
1.652
1.642
1.657
1.672
1.657
1.647
1.662
1.676
1.676
1.676
1.681
1.701
1.696
1.672
1.667
1.672
1.667
1.652
1.652
1.662
1.662
1.642
1.642
1.667
1.676
1.672
1.672
1.686
1.701
1.691
1.676
1.681
1.686
1.672
1.662
1.667
1.681
1.681
1.662
1.652
1.657
1.652
1.647
1.647
1.662
1.672
1.662
1.672
1.701
1.711
1.701
1.686
1.686
1.691
1.672
1.657
1.672
1.691
1.681
1.667
1.667
1.691
1.691
1.681
1.686
1.706
1.706
1.696
1.701
1.72
1.725
1.701
1.686
1.691
1.696
1.691
1.681
1.681
1.691
1.681
1.681
1.706
1.72
1.711
1.691
1.686
1.701
1.701
1.681
1.696
1.72
1.725
1.716
1.701
1.701
1.696
1.667
1.652
1.662
1.667
1.657
1.652
1.667
1.681
1.667
1.652
1.652
1.652
1.632
1.628
1.642
1.667
1.662
1.652
1.662
1.681
1.676
1.662
1.652
1.662
1.662
1.642
1.632
1.652
1.667
1.667
1.667
1.691
1.73
1.75
1.784
1.843
1.906
1.955
2.004
2.063
2.126
2.146
2.131
2.121
2.111
2.063
1.989
1.906
1.838
1.769
1.686
1.637
1.618
1.603
1.584
1.579
1.598
1.628
1.632
1.632
1.647
1.652
1.642
1.628
1.623
1.647
1.647
1.647
1.667
1.696
1.706
1.691
1.686
1.686
1.676
1.652
1.647
1.662
1.667
1.657
1.652
1.667
1.676
1.652
1.632
1.637
1.652
1.657
1.657
1.667
1.691
1.691
1.676
1.686
1.706
1.701
1.686
1.676
1.676
1.676
1.652
1.657
1.676
1.681
1.672
1.672
1.691
1.711
1.696
1.691
1.706
1.725
1.725
1.72
1.72
1.73
1.716
1.696
1.701
1.716
1.706
1.691
1.691
1.706
1.72
1.711
1.716
1.73
1.725
1.716
1.711
1.725
1.74
1.73
1.73
1.75
1.764
1.769
1.769
1.784
1.799
1.789
1.764
1.755
1.75
1.74
1.73
1.735
1.76
1.774
1.774
1.789
1.823
1.838
1.828
1.808
1.794
1.794
1.769
1.755
1.764
1.784
1.784
1.779
1.784
1.794
1.774
1.74
1.735
1.74
1.72
1.701
1.691
1.706
1.706
1.676
1.667
1.676
1.672
1.657
1.642
1.652
1.662
1.652
1.647
1.662
1.676
1.672
1.662
1.657
1.662
1.647
1.628
1.628
1.637
1.637
1.628
1.623
1.642
1.652
1.637
1.637
1.657
1.657
1.637
1.623
1.623
1.642
1.632
1.618
1.632
1.647
1.637
1.628
1.632
1.647
1.642
1.628
1.632
1.647
1.652
1.647
1.647
1.662
1.662
1.637
1.637
1.652
1.657
1.657
1.652
1.662
1.672
1.652
1.642
1.657
1.667
1.662
1.652
1.652
1.657
1.647
1.628
1.637
1.657
1.662
1.657
1.662
1.681
1.686
1.672
1.672
1.681
1.676
1.652
1.628
1.632
1.642
1.628
1.628
1.647
1.662
1.657
1.652
1.662
1.676
1.672
1.652
1.657
1.672
1.676
1.676
1.681
1.691
1.691
1.667
1.662
1.676
1.681
1.672
1.662
1.667
1.672
1.647
1.637
1.647
1.657
1.647
1.642
1.657
1.681
1.681
1.667
1.672
1.681
1.672
1.667
1.667
1.686
1.686
1.662
1.652
1.662
1.662
1.652
1.642
1.647
1.657
1.642
1.637
1.662
1.681
1.686
1.681
1.686
1.701
1.691
1.672
1.676
1.686
1.676
1.652
1.647
1.657
1.672
1.662
1.662
1.667
1.667
1.657
1.657
1.667
1.676
1.667
1.662
1.681
1.696
1.686
1.676
1.686
1.696
1.676
1.657
1.662
1.676
1.672
1.662
1.657
1.676
1.686
1.672
1.676
1.696
1.701
1.696
1.691
1.691
1.691
1.667
1.657
1.676
1.696
1.696
1.701
1.716
1.74
1.74
1.725
1.735
1.735
1.72
1.701
1.696
1.711
1.716
1.706
1.711
1.725
1.725
1.716
1.706
1.711
1.716
1.696
1.686
1.691
1.701
1.696
1.686
1.696
1.706
1.696
1.672
1.672
1.667
1.647
1.632
1.637
1.657
1.667
1.657
1.672
1.696
1.711
1.701
1.691
1.686
1.686
1.662
1.647
1.667
1.686
1.696
1.696
1.706
1.716
1.701
1.676
1.676
1.686
1.681
1.681
1.701
1.76
1.808
1.852
1.906
1.975
2.033
2.072
2.107
2.141
2.155
2.116
2.067
2.023
1.97
1.891
1.813
1.745
1.701
1.642
1.593
1.593
1.613
1.628
1.632
1.642
1.667
1.686
1.681
1.691
1.711
1.706
1.691
1.676
1.681
1.686
1.662
1.647
1.667
1.686
1.681
1.672
1.681
1.696
1.696
1.681
1.691
1.706
1.696
1.681
1.676
1.686
1.681
1.662
1.667
1.691
1.696
1.681
1.672
1.691
1.711
1.706
1.706
1.716
1.725
1.716
1.706
1.706
1.72
1.706
1.691
1.701
1.72
1.725
1.72
1.725
1.74
1.74
1.711
1.706
1.72
1.72
1.711
1.711
1.735
1.755
1.745
1.74
1.755
1.764
1.755
1.74
1.74
1.745
1.74
1.73
1.75
1.769
1.764
1.755
1.755
1.764
1.755
1.73
1.735
1.755
1.769
1.779
1.794
1.818
1.838
1.818
1.808
1.818
1.823
1.813
1.804
1.804
1.808
1.794
1.784
1.794
1.808
1.804
1.794
1.799
1.823
1.823
1.804
1.804
1.818
1.818
1.799
1.779
1.769
1.764
1.74
1.725
1.73
1.735
1.716
1.701
1.711
1.725
1.711
1.681
1.676
1.681
1.667
1.647
1.647
1.672
1.676
1.667
1.676
1.691
1.681
1.657
1.637
1.632
1.637
1.623
1.628
1.652
1.672
1.672
1.672
1.676
1.686
1.667
1.642
1.637
1.642
1.647
1.642
1.647
1.672
1.681
1.662
1.662
1.672
1.667
1.652
1.642
1.652
1.662
1.647
1.652
1.676
1.696
1.691
1.681
1.676
1.681
1.662
1.647
1.652
1.672
1.672
1.672
1.672
1.691
1.701
1.686
1.691
1.701
1.691
1.676
1.672
1.686
1.701
1.691
1.691
1.711
1.725
1.72
1.711
1.716
1.73
1.716
1.706
1.711
1.72
1.716
1.711
1.711
1.725
1.725
1.701
1.701
1.72
1.72
1.706
1.696
1.711
1.72
1.706
1.711
1.735
1.745
1.735
1.725
1.725
1.725
1.711
1.696
1.706
1.716
1.716
1.711
1.725
1.75
1.76
1.74
1.73
1.74
1.74
1.735
1.73
1.74
1.745
1.725
1.716
1.735
1.745
1.735
1.716
1.711
1.72
1.701
1.681
1.686
1.691
1.681
1.667
1.672
1.691
1.691
1.681
1.691
1.72
1.73
1.725
1.716
1.716
1.72
1.701
1.686
1.696
1.706
1.706
1.706
1.725
1.745
1.735
1.72
1.73
1.745
1.735
1.716
1.701
1.701
1.696
1.676
1.681
1.701
1.701
1.686
1.681
1.701
1.716
1.696
1.691
1.706
1.706
1.696
1.691
1.706
1.725
1.716
1.696
1.706
1.73
1.73
1.72
1.716
1.725
1.72
1.696
1.691
1.696
1.686
1.681
1.681
1.701
1.706
1.691
1.686
1.706
1.711
1.696
1.676
1.676
1.686
1.676
1.662
1.672
1.686
1.676
1.657
1.647
1.657
1.657
1.642
1.652
1.676
1.696
1.691
1.686
1.696
1.701
1.672
1.652
1.657
1.657
1.642
1.642
1.662
1.686
1.691
1.706
1.75
1.804
1.852
1.896
1.955
2.023
2.063
2.077
2.097
2.107
2.072
2.009
1.945
1.891
1.828
1.745
1.686
1.657
1.637
1.618
1.608
1.618
1.642
1.632
1.618
1.632
1.647
1.642
1.632
1.637
1.657
1.657
1.642
1.657
1.686
1.691
1.676
1.672
1.681
1.691
1.662
1.652
1.672
1.686
1.686
1.686
1.701
1.725
1.716
1.701
1.701
1.706
1.686
1.672
1.676
1.691
1.686
1.672
1.676
1.701
1.706
1.701
1.696
1.701
1.696
1.667
1.662
1.676
1.676
1.662
1.657
1.681
1.716
1.711
1.706
1.72
1.74
1.735
1.725
1.725
1.74
1.74
1.725
1.73
1.74
1.74
1.725
1.716
1.725
1.73
1.716
1.725
1.76
1.774
1.774
1.764
1.769
1.774
1.75
1.73
1.735
1.75
1.75
1.74
1.75
1.769
1.774
1.769
1.779
1.794
1.794
1.779
1.779
1.799
1.818
1.804
1.804
1.813
1.813
1.804
1.794
1.799
1.808
1.789
1.769
1.779
1.799
1.799
1.789
1.784
1.789
1.779
1.764
1.769
1.774
1.76
1.74
1.72
1.725
1.716
1.686
1.667
1.667
1.662
1.647
1.647
1.657
1.672
1.652
1.637
1.642
1.652
1.647
1.637
1.632
1.642
1.642
1.632
1.637
1.647
1.632
1.613
1.608
1.618
1.618
1.588
1.584
1.608
1.632
1.632
1.628
1.637
1.647
1.628
1.613
1.623
1.637
1.632
1.628
1.632
1.652
1.642
1.623
1.623
1.632
1.628
1.613
1.608
1.623
1.628
1.623
1.632
1.657
1.662
1.647
1.632
1.632
1.637
1.623
1.613
1.628
1.642
1.637
1.628
1.637
1.657
1.657
1.637
1.642
1.657
1.657
1.642
1.637
1.642
1.652
1.637
1.647
1.667
1.672
1.667
1.667
1.676
1.681
1.657
1.637
1.642
1.652
1.652
1.647
1.662
1.681
1.681
1.662
1.667
1.676
1.662
1.642
1.637
1.652
1.667
1.652
1.657
1.672
1.676
1.667
1.662
1.667
1.681
1.667
1.657
1.672
1.686
1.676
1.662
1.657
1.667
1.662
1.642
1.657
1.686
1.696
1.691
1.691
1.701
1.696
1.667
1.657
1.672
1.681
1.667
1.657
1.662
1.676
1.662
1.647
1.657
1.672
1.672
1.672
1.686
1.716
1.716
1.706
1.716
1.725
1.711
1.686
1.662
1.662
1.657
1.632
1.632
1.667
1.691
1.701
1.716
1.74
1.764
1.755
1.735
1.745
1.75
1.735
1.711
1.701
1.711
1.701
1.686
1.696
1.72
1.73
1.73
1.735
1.755
1.755
1.725
1.706
1.701
1.691
1.676
1.657
1.657
1.667
1.652
1.647
1.667
1.686
1.686
1.681
1.681
1.696
1.691
1.667
1.667
1.672
1.667
1.657
1.662
1.681
1.691
1.676
1.676
1.686
1.676
1.657
1.647
1.662
1.686
1.681
1.676
1.696
1.701
1.686
1.662
1.652
1.667
1.676
1.691
1.745
1.818
1.872
1.916
1.965
2.019
2.048
2.038
2.033
2.033
2.019
1.975
1.921
1.882
1.833
1.76
1.701
1.667
1.637
1.603
1.574
1.574
1.598
1.608
1.608
1.632
1.667
1.676
1.676
1.681
1.691
1.691
1.662
1.647
1.647
1.642
1.618
1.603
1.613
1.632
1.628
1.632
1.662
1.681
1.676
1.667
1.667
1.672
1.652
1.628
1.637
1.667
1.676
1.676
1.681
1.701
1.711
1.686
1.681
1.696
1.696
1.681
1.662
1.667
1.686
1.676
1.672
1.686
1.696
1.686
1.676
1.686
1.701
1.696
1.676
1.681
1.691
1.691
1.691
1.696
1.711
1.706
1.676
1.676
1.701
1.716
1.716
1.72
1.735
1.75
1.735
1.725
1.735
1.74
1.725
1.711
1.711
1.725
1.73
1.725
1.74
1.76
1.764
1.764
1.769
1.794
1.808
1.789
1.779
1.779
1.784
1.774
1.764
1.774
1.784
1.769
1.769
1.789
1.804
1.804
1.799
1.799
1.813
1.808
1.794
1.799
1.804
1.784
1.76
1.75
1.764
1.764
1.745
1.755
1.774
1.779
1.76
1.735
1.73
1.725
1.691
1.662
1.662
1.676
1.681
1.676
1.681
1.691
1.681
1.657
1.662
1.667
1.657
1.647
1.647
1.657
1.657
1.637
1.632
1.647
1.647
1.637
1.632
1.647
1.662
1.647
1.637
1.647
1.657
1.642
1.628
1.632
1.657
1.657
1.647
1.662
1.681
1.676
1.652
1.628
1.623
1.618
1.598
1.598
1.618
1.632
1.637
1.647
1.672
1.691
1.676
1.662
1.662
1.667
1.657
1.647
1.647
1.652
1.637
1.623
1.642
1.672
1.676
1.672
1.667
1.681
1.686
1.662
1.657
1.662
1.662
1.652
1.652
1.662
1.672
1.657
1.652
1.667
1.676
1.667
1.657
1.657
1.672
1.667
1.657
1.667
1.672
1.657
1.637
1.632
1.652
1.662
1.647
1.657
1.681
1.701
1.701
1.696
1.701
1.701
1.667
1.647
1.647
1.652
1.647
1.647
1.662
1.686
1.681
1.662
1.672
1.676
1.662
1.652
1.652
1.672
1.667
1.642
1.642
1.657
1.667
1.662
1.662
1.676
1.686
1.672
1.662
1.672
1.676
1.672
1.657
1.662
1.681
1.676
1.667
1.681
1.701
1.691
1.667
1.657
1.667
1.667
1.647
1.662
1.691
1.706
1.696
1.686
1.691
1.686
1.657
1.637
1.642
1.652
1.647
1.642
1.652
1.676
1.676
1.672
1.691
1.706
1.701
1.691
1.691
1.711
1.716
1.696
1.696
1.711
1.716
1.711
1.711
1.72
1.73
1.716
1.716
1.735
1.74
1.72
1.701
1.706
1.72
1.711
1.691
1.701
1.711
1.711
1.696
1.686
1.696
1.681
1.647
1.632
1.637
1.637
1.632
1.628
1.642
1.662
1.652
1.662
1.691
1.706
1.706
1.696
1.701
1.706
1.686
1.662
1.672
1.686
1.681
1.676
1.691
1.716
1.716
1.686
1.676
1.681
1.672
1.647
1.637
1.657
1.691
1.711
1.735
1.784
1.823
1.848
1.882
1.931
1.984
2.014
2.033
2.067
2.087
2.072
2.028
1.989
1.94
1.872
1.784
1.72
1.686
1.647
1.618
1.603
1.618
1.637
1.628
1.632
1.657
1.676
1.676
1.672
1.676
1.686
1.672
1.657
1.662
1.667
1.662
1.652
1.652
1.657
1.647
1.628
1.637
1.672
1.672
1.662
1.652
1.662
1.667
1.652
1.657
1.681
1.696
1.696
1.696
1.711
1.73
1.716
1.691
1.691
1.696
1.686
1.667
1.672
1.696
1.706
1.696
1.701
1.716
1.716
1.701
1.691
1.696
1.701
1.681
1.676
1.686
1.701
1.696
1.696
1.706
1.725
1.711
1.691
1.701
1.716
1.716
1.701
1.696
1.706
1.711
1.701
1.716
1.745
1.755
1.75
1.75
1.764
1.774
1.755
1.745
1.755
1.755
1.755
1.75
1.755
1.769
1.76
1.75
1.764
1.779
1.774
1.769
1.779
1.804
1.813
1.799
1.808
1.818
1.808
1.784
1.764
1.769
1.774
1.76
1.76
1.779
1.784
1.769
1.75
1.745
1.75
1.74
1.73
1.745
1.764
1.769
1.764
1.764
1.774
1.76
1.72
1.701
1.701
1.691
1.676
1.667
1.672
1.667
1.637
1.628
1.637
1.647
1.642
1.632
1.642
1.657
1.647
1.632
1.637
1.637
1.628
1.618
1.623
1.632
1.628
1.608
1.613
1.628
1.642
1.642
1.642
1.662
1.672
1.652
1.647
1.657
1.657
1.642
1.628
1.642
1.652
1.637
1.618
1.628
1.637
1.637
1.623
1.623
1.637
1.637
1.623
1.637
1.662
1.667
1.652
1.637
1.652
1.662
1.647
1.637
1.647
1.652
1.637
1.623
1.637
1.657
1.642
1.623
1.632
1.652
1.652
1.647
1.647
1.662
1.667
1.657
1.676
1.696
1.696
1.676
1.657
1.657
1.652
1.628
1.618
1.632
1.642
1.637
1.632
1.652
1.681
1.676
1.667
1.676
1.681
1.662
1.642
1.642
1.657
1.652
1.623
1.623
1.642
1.652
1.652
1.647
1.662
1.667
1.647
1.642
1.662
1.676
1.672
1.662
1.676
1.691
1.681
1.662
1.667
1.672
1.667
1.657
1.657
1.676
1.676
1.657
1.662
1.681
1.676
1.657
1.642
1.647
1.657
1.642
1.642
1.667
1.681
1.667
1.647
1.652
1.662
1.652
1.637
1.652
1.672
1.676
1.667
1.667
1.676
1.662
1.637
1.642
1.657
1.662
1.662
1.672
1.701
1.711
1.696
1.691
1.706
1.706
1.696
1.681
1.686
1.701
1.691
1.681
1.696
1.716
1.716
1.706
1.711
1.725
1.725
1.706
1.711
1.72
1.716
1.691
1.676
1.691
1.701
1.686
1.676
1.686
1.696
1.696
1.696
1.706
1.716
1.686
1.662
1.667
1.681
1.681
1.672
1.676
1.691
1.691
1.672
1.676
1.686
1.676
1.657
1.647
1.667
1.676
1.667
1.667
1.686
1.696
1.686
1.667
1.667
1.667
1.652
1.632
1.642
1.657
1.657
1.652
1.657
1.676
1.676
1.662
1.672
1.701
1.72
1.75
1.794
1.857
1.916
1.95
2.004
2.067
2.121
2.136
2.126
2.107
2.077
2.009
1.931
1.867
1.799
1.716
1.642
1.603
1.588
1.574
1.564
1.584
1.618
1.632
1.628
1.632
1.657
1.672
1.652
1.652
1.672
1.686
1.681
1.676
1.681
1.691
1.662
1.637
1.637
1.642
1.637
1.637
1.652
1.686
1.696
1.696
1.711
1.73
1.73
1.706
1.681
1.676
1.667
1.637
1.632
1.647
1.657
1.652
1.652
1.672
1.696
1.691
1.681
1.691
1.706
1.701
1.686
1.676
1.686
1.686
1.676
1.691
1.711
1.711
1.706
1.711
1.725
1.73
1.706
1.696
1.716
1.73
1.725
1.72
1.73
1.74
1.725
1.716
1.725
1.735
1.725
1.711
1.716
1.735
1.735
1.72
1.73
1.75
1.75
1.745
1.74
1.76
1.769
1.75
1.74
1.755
1.764
1.76
1.764
1.784
1.799
1.779
1.769
1.789
1.804
1.799
1.779
1.779
1.789
1.789
1.769
1.779
1.804
1.804
1.794
1.794
1.808
1.818
1.799
1.789
1.794
1.784
1.764
1.75
1.75
1.755
1.73
1.706
1.701
1.696
1.681
1.662
1.667
1.686
1.686
1.672
1.676
1.691
1.681
1.662
1.652
1.657
1.652
1.623
1.613
1.628
1.637
1.628
1.618
1.628
1.647
1.642
1.632
1.642
1.652
1.647
1.632
1.632
1.647
1.637
1.623
1.632
1.662
1.672
1.667
1.662
1.667
1.662
1.637
1.632
1.642
1.642
1.628
1.618
1.637
1.657
1.647
1.642
1.657
1.672
1.662
1.652
1.647
1.657
1.642
1.618
1.623
1.642
1.637
1.628
1.628
1.647
1.657
1.642
1.637
1.647
1.647
1.642
1.637
1.657
1.676
1.667
1.657
1.672
1.681
1.672
1.657
1.652
1.662
1.652
1.632
1.642
1.662
1.672
1.676
1.681
1.696
1.696
1.667
1.662
1.667
1.662
1.642
1.628
1.637
1.647
1.632
1.628
1.647
1.662
1.657
1.647
1.657
1.672
1.667
1.652
1.662
1.681
1.686
1.681
1.681
1.691
1.686
1.662
1.657
1.667
1.667
1.657
1.642
1.657
1.672
1.662
1.652
1.667
1.681
1.672
1.652
1.657
1.672
1.662
1.647
1.652
1.662
1.647
1.632
1.632
1.647
1.652
1.632
1.637
1.662
1.676
1.681
1.681
1.686
1.696
1.681
1.667
1.681
1.691
1.681
1.657
1.652
1.667
1.662
1.647
1.647
1.662
1.662
1.657
1.662
1.681
1.691
1.676
1.676
1.691
1.686
1.662
1.637
1.632
1.642
1.632
1.628
1.647
1.676
1.686
1.696
1.716
1.74
1.74
1.72
1.725
1.74
1.74
1.725
1.72
1.735
1.73
1.701
1.696
1.716
1.72
1.711
1.696
1.696
1.701
1.681
1.672
1.681
1.691
1.676
1.662
1.667
1.681
1.672
1.652
1.652
1.662
1.652
1.637
1.637
1.662
1.676
1.662
1.662
1.681
1.686
1.676
1.667
1.667
1.667
1.642
1.632
1.652
1.667
1.667
1.672
1.686
1.706
1.696
1.676
1.676
1.686
1.686
1.681
1.696
1.72
1.745
1.755
1.794
1.852
1.901
1.94
1.984
2.043
2.097
2.107
2.102
2.097
2.067
2.009
1.931
1.857
1.794
1.716
1.647
1.613
1.603
1.593
1.588
1.593
1.618
1.637
1.637
1.652
1.676
1.686
1.676
1.667
1.667
1.672
1.652
1.642
1.652
1.667
1.667
1.662
1.667
1.686
1.681
1.667
1.672
1.681
1.672
1.657
1.662
1.681
1.686
1.667
1.667
1.681
1.686
1.672
1.667
1.672
1.676
1.652
1.642
1.652
1.662
1.657
1.652
1.657
1.676
1.676
1.667
1.676
1.696
1.696
1.691
1.691
1.706
1.711
1.696
1.706
1.725
1.735
1.725
1.725
1.735
1.74
1.716
1.701
1.711
1.72
1.711
1.706
1.716
1.73
1.725
1.716
1.725
1.74
1.735
1.72
1.725
1.74
1.75
1.735
1.74
1.76
1.76
1.75
1.735
1.74
1.75
1.74
1.745
1.769
1.789
1.789
1.784
1.794
1.804
1.789
1.774
1.784
1.804
1.804
1.794
1.794
1.813
1.823
1.804
1.799
1.808
1.808
1.799
1.789
1.794
1.789
1.75
1.725
1.72
1.716
1.701
1.691
1.701
1.716
1.706
1.686
1.691
1.701
1.686
1.657
1.637
1.642
1.637
1.628
1.647
1.672
1.686
1.681
1.676
1.686
1.691
1.662
1.637
1.637
1.647
1.647
1.642
1.652
1.672
1.657
1.637
1.642
1.647
1.632
1.618
1.618
1.637
1.642
1.628
1.628
1.632
1.628
1.613
1.613
1.628
1.642
1.632
1.632
1.662
1.681
1.676
1.657
1.652
1.662
1.647
1.628
1.637
1.652
1.652
1.652
1.662
1.681
1.676
1.657
1.662
1.676
1.672
1.647
1.628
1.637
1.652
1.642
1.642
1.662
1.667
1.657
1.642
1.652
1.672
1.662
1.647
1.647
1.662
1.657
1.652
1.657
1.667
1.662
1.642
1.647
1.667
1.672
1.657
1.652
1.662
1.667
1.642
1.637
1.657
1.667
1.657
1.647
1.647
1.657
1.647
1.637
1.647
1.672
1.672
1.662
1.662
1.672
1.676
1.657
1.662
1.676
1.672
1.647
1.628
1.628
1.632
1.613
1.608
1.637
1.657
1.662
1.662
1.667
1.681
1.662
1.632
1.628
1.637
1.637
1.637
1.652
1.672
1.676
1.652
1.652
1.662
1.657
1.642
1.637
1.662
1.686
1.681
1.676
1.691
1.696
1.672
1.652
1.647
1.657
1.647
1.642
1.662
1.686
1.691
1.681
1.676
1.686
1.672
1.642
1.642
1.662
1.667
1.662
1.657
1.667
1.672
1.652
1.652
1.662
1.676
1.681
1.691
1.711
1.725
1.716
1.696
1.701
1.711
1.701
1.686
1.686
1.701
1.701
1.681
1.681
1.696
1.691
1.676
1.667
1.681
1.696
1.681
1.676
1.691
1.691
1.681
1.667
1.667
1.667
1.642
1.618
1.618
1.623
1.613
1.588
1.588
1.608
1.618
1.618
1.642
1.676
1.696
1.691
1.691
1.706
1.706
1.667
1.642
1.637
1.637
1.632
1.632
1.647
1.672
1.676
1.676
1.701
1.72
1.735
1.75
1.779
1.828
1.862
1.887
1.935
1.999
2.038
2.053
2.058
2.058
2.028
1.965
1.896
1.843
1.774
1.696
1.628
1.598
1.588
1.564
1.554
1.574
1.593
1.603
1.603
1.613
1.642
1.652
1.647
1.662
1.691
1.696
1.686
1.676
1.681
1.676
1.652
1.637
1.647
1.652
1.642
1.632
1.647
1.672
1.662
1.647
1.662
1.686
1.691
1.676
1.676
1.686
1.691
1.676
1.676
1.686
1.681
1.667
1.657
1.672
1.681
1.667
1.667
1.686
1.701
1.691
1.681
1.691
1.706
1.701
1.686
1.701
1.711
1.701
1.696
1.696
1.706
1.701
1.681
1.686
1.706
1.716
1.706
1.706
1.725
1.735
1.716
1.711
1.725
1.735
1.72
1.711
1.716
1.73
1.72
1.72
1.735
1.75
1.75
1.75
1.764
1.784
1.784
1.76
1.764
1.779
1.774
1.764
1.764
1.779
1.794
1.779
1.784
1.804
1.808
1.799
1.789
1.794
1.804
1.789
1.769
1.779
1.784
1.774
1.764
1.774
1.789
1.789
1.764
1.769
1.784
1.774
1.76
1.755
1.76
1.75
1.716
1.706
1.716
1.72
1.711
1.691
1.691
1.696
1.676
1.667
1.676
1.691
1.686
1.667
1.647
1.647
1.628
1.608
1.613
1.637
1.642
1.642
1.647
1.667
1.672
1.642
1.623
1.623
1.618
1.608
1.603
1.618
1.642
1.637
1.632
1.647
1.657
1.637
1.608
1.603
1.623
1.632
1.628
1.647
1.672
1.676
1.667
1.657
1.667
1.662
1.637
1.628
1.642
1.647
1.637
1.637
1.652
1.672
1.662
1.647
1.662
1.676
1.672
1.662
1.657
1.662
1.652
1.632
1.637
1.657
1.657
1.647
1.647
1.672
1.681
1.667
1.662
1.672
1.672
1.647
1.628
1.632
1.642
1.637
1.628
1.647
1.672
1.676
1.676
1.686
1.701
1.681
1.657
1.652
1.662
1.662
1.657
1.662
1.681
1.691
1.676
1.676
1.696
1.701
1.681
1.667
1.662
1.667
1.647
1.632
1.642
1.657
1.657
1.652
1.662
1.676
1.662
1.642
1.642
1.657
1.657
1.652
1.652
1.672
1.681
1.667
1.662
1.676
1.676
1.662
1.647
1.652
1.667
1.657
1.652
1.672
1.691
1.681
1.676
1.676
1.686
1.672
1.652
1.662
1.681
1.676
1.662
1.662
1.676
1.681
1.667
1.667
1.681
1.686
1.676
1.672
1.681
1.686
1.662
1.647
1.662
1.672
1.662
1.657
1.667
1.691
1.691
1.681
1.696
1.711
1.706
1.696
1.701
1.72
1.725
1.706
1.701
1.716
1.72
1.711
1.696
1.701
1.706
1.686
1.676
1.691
1.701
1.691
1.676
1.676
1.696
1.691
1.667
1.676
1.696
1.696
1.681
1.672
1.676
1.672
1.642
1.637
1.652
1.657
1.647
1.642
1.652
1.672
1.662
1.647
1.647
1.657
1.657
1.652
1.662
1.681
1.681
1.672
1.686
1.706
1.696
1.676
1.662
1.662
1.657
1.642
1.657
1.701
1.735
1.769
1.813
1.877
1.94
1.97
2.009
2.058
2.097
2.102
2.077
2.048
2.019
1.955
1.862
1.784
1.73
1.672
1.618
1.593
1.593
1.598
1.579
1.588
1.608
1.618
1.613
1.613
1.642
1.672
1.676
1.681
1.706
1.72
1.706
1.686
1.676
1.681
1.667
1.642
1.647
1.657
1.657
1.652
1.657
1.676
1.676
1.662
1.672
1.691
1.691
1.681
1.667
1.672
1.676
1.652
1.637
1.647
1.662
1.662
1.667
1.681
1.706
1.711
1.696
1.701
1.706
1.691
1.676
1.672
1.696
1.701
1.686
1.691
1.711
1.711
1.701
1.691
1.701
1.711
1.696
1.696
1.72
1.75
1.76
1.76
1.764
1.769
1.755
1.73
1.735
1.75
1.74
1.72
1.716
1.73
1.74
1.725
1.73
1.755
1.769
1.769
1.769
1.784
1.799
1.779
1.755
1.755
1.75
1.74
1.735
1.745
1.774
1.784
1.784
1.804
1.823
1.818
1.794
1.779
1.779
1.784
1.764
1.774
1.799
1.813
1.813
1.818
1.828
1.833
1.799
1.774
1.764
1.76
1.745
1.735
1.73
1.745
1.735
1.716
1.716
1.72
1.701
1.672
1.657
1.667
1.667
1.647
1.652
1.662
1.667
1.657
1.647
1.647
1.652
1.637
1.623
1.637
1.647
1.652
1.652
1.662
1.667
1.652
1.623
1.628
1.642
1.642
1.632
1.632
1.637
1.632
1.603
1.608
1.623
1.628
1.618
1.613
1.632
1.652
1.642
1.642
1.662
1.672
1.662
1.642
1.637
1.647
1.637
1.623
1.632
1.652
1.652
1.642
1.642
1.662
1.657
1.637
1.628
1.637
1.637
1.623
1.618
1.628
1.642
1.637
1.628
1.642
1.652
1.652
1.652
1.662
1.681
1.672
1.652
1.657
1.667
1.662
1.652
1.647
1.662
1.662
1.642
1.647
1.667
1.672
1.657
1.647
1.657
1.672
1.652
1.647
1.662
1.667
1.652
1.637
1.642
1.657
1.652
1.642
1.652
1.667
1.672
1.667
1.667
1.681
1.676
1.647
1.642
1.662
1.672
1.667
1.662
1.681
1.696
1.681
1.667
1.676
1.681
1.657
1.632
1.623
1.623
1.618
1.613
1.632
1.662
1.662
1.652
1.647
1.657
1.662
1.642
1.642
1.662
1.672
1.667
1.662
1.676
1.681
1.662
1.642
1.647
1.652
1.647
1.647
1.672
1.696
1.696
1.681
1.691
1.706
1.696
1.676
1.672
1.681
1.676
1.652
1.652
1.667
1.672
1.667
1.667
1.681
1.696
1.691
1.686
1.701
1.711
1.701
1.681
1.686
1.701
1.696
1.681
1.686
1.701
1.701
1.696
1.696
1.701
1.696
1.667
1.662
1.686
1.696
1.696
1.696
1.706
1.72
1.696
1.681
1.686
1.681
1.667
1.652
1.652
1.672
1.657
1.642
1.642
1.652
1.642
1.632
1.637
1.657
1.662
1.642
1.652
1.676
1.681
1.672
1.662
1.672
1.676
1.662
1.657
1.676
1.691
1.691
1.691
1.711
1.74
1.755
1.769
1.818
1.867
1.901
1.931
1.97
2.028
2.067
2.072
2.072
2.072
2.043
1.984
1.916
1.848
1.779
1.686
1.618
1.593
1.593
1.588
1.598
1.623
1.657
1.667
1.667
1.672
1.681
1.676
1.667
1.662
1.676
1.672
1.652
1.662
1.681
1.686
1.676
1.672
1.681
1.691
1.676
1.676
1.691
1.701
1.696
1.691
1.701
1.716
1.696
1.672
1.681
1.696
1.691
1.672
1.672
1.686
1.686
1.667
1.662
1.681
1.691
1.691
1.691
1.711
1.73
1.72
1.711
1.72
1.725
1.716
1.706
1.711
1.725
1.72
1.711
1.73
1.745
1.74
1.73
1.725
1.735
1.735
1.716
1.72
1.74
1.74
1.73
1.72
1.725
1.74
1.725
1.73
1.75
1.76
1.76
1.76
1.769
1.784
1.774
1.76
1.774
1.784
1.779
1.764
1.769
1.789
1.794
1.779
1.789
1.804
1.799
1.784
1.774
1.784
1.794
1.774
1.764
1.779
1.789
1.794
1.794
1.808
1.823
1.813
1.799
1.813
1.828
1.823
1.804
1.799
1.804
1.794
1.764
1.755
1.76
1.75
1.725
1.716
1.72
1.72
1.696
1.686
1.691
1.696
1.681
1.662
1.662
1.672
1.657
1.642
1.657
1.676
1.672
1.662
1.657
1.667
1.667
1.642
1.642
1.652
1.647
1.637
1.637
1.652
1.662
1.647
1.642
1.652
1.662
1.657
1.647
1.647
1.662
1.662
1.657
1.672
1.681
1.676
1.662
1.662
1.667
1.667
1.647
1.657
1.676
1.681
1.667
1.662
1.672
1.676
1.642
1.628
1.637
1.642
1.647
1.642
1.657
1.681
1.667
1.652
1.657
1.672
1.672
1.657
1.652
1.667
1.667
1.652
1.667
1.691
1.696
1.691
1.691
1.701
1.706
1.681
1.667
1.672
1.676
1.667
1.662
1.672
1.691
1.681
1.662
1.676
1.686
1.681
1.667
1.662
1.672
1.667
1.647
1.652
1.667
1.672
1.662
1.662
1.672
1.676
1.662
1.662
1.681
1.691
1.681
1.672
1.686
1.706
1.701
1.681
1.681
1.681
1.667
1.657
1.662
1.681
1.681
1.667
1.672
1.691
1.696
1.686
1.676
1.676
1.676
1.657
1.652
1.667
1.676
1.672
1.667
1.681
1.701
1.691
1.676
1.686
1.691
1.676
1.657
1.642
1.647
1.642
1.632
1.647
1.681
1.696
1.691
1.696
1.72
1.73
1.711
1.706
1.716
1.711
1.691
1.676
1.686
1.706
1.701
1.701
1.725
1.75
1.745
1.74
1.73
1.735
1.725
1.701
1.706
1.716
1.706
1.696
1.686
1.701
1.706
1.681
1.672
1.691
1.706
1.701
1.686
1.691
1.701
1.681
1.662
1.667
1.676
1.672
1.667
1.672
1.691
1.691
1.676
1.676
1.691
1.691
1.686
1.681
1.696
1.696
1.672
1.662
1.672
1.676
1.662
1.652
1.662
1.676
1.662
1.652
1.667
1.681
1.681
1.681
1.706
1.745
1.774
1.794
1.848
1.911
1.97
2.014
2.058
2.107
2.126
2.102
2.072
2.048
1.999
1.916
1.823
1.745
1.691
1.632
1.598
1.598
1.608
1.608
1.613
1.642
1.681
1.701
1.686
1.681
1.686
1.672
1.652
1.637
1.647
1.652
1.642
1.647
1.672
1.691
1.701
1.696
1.701
1.711
1.691
1.672
1.676
1.681
1.667
1.652
1.662
1.676
1.667
1.647
1.652
1.667
1.667
1.657
1.662
1.691
1.711
1.696
1.696
1.716
1.72
1.701
1.686
1.686
1.691
1.676
1.672
1.696
1.72
1.72
1.716
1.72
1.73
1.716
1.686
1.681
1.691
1.696
1.701
1.711
1.73
1.745
1.73
1.73
1.74
1.74
1.725
1.72
1.73
1.745
1.74
1.73
1.75
1.764
1.76
1.745
1.74
1.75
1.745
1.73
1.74
1.76
1.755
1.745
1.745
1.75
1.755
1.74
1.745
1.774
1.789
1.799
1.804
1.828
1.843
1.818
1.794
1.789
1.789
1.774
1.764
1.774
1.794
1.799
1.794
1.804
1.823
1.813
1.789
1.769
1.769
1.764
1.745
1.74
1.745
1.74
1.716
1.686
1.681
1.681
1.657
1.632
1.642
1.652
1.647
1.642
1.647
1.667
1.667
1.647
1.657
1.672
1.672
1.657
1.652
1.652
1.647
1.613
1.603
1.618
1.632
1.637
1.642
1.657
1.676
1.662
1.652
1.657
1.662
1.647
1.623
1.618
1.628
1.628
1.613
1.623
1.632
1.628
1.613
1.603
1.623
1.637
1.632
1.637
1.657
1.667
1.662
1.647
1.652
1.657
1.637
1.623
1.637
1.657
1.652
1.647
1.652
1.676
1.676
1.657
1.652
1.662
1.662
1.657
1.662
1.676
1.681
1.667
1.662
1.676
1.686
1.672
1.662
1.662
1.667
1.647
1.632
1.637
1.642
1.632
1.613
1.618
1.632
1.637
1.632
1.657
1.681
1.686
1.676
1.667
1.672
1.667
1.632
1.623
1.642
1.657
1.657
1.657
1.676
1.686
1.657
1.632
1.637
1.642
1.637
1.637
1.647
1.676
1.681
1.667
1.667
1.672
1.657
1.642
1.637
1.652
1.657
1.637
1.632
1.657
1.667
1.662
1.657
1.672
1.681
1.672
1.662
1.676
1.686
1.672
1.652
1.642
1.652
1.647
1.637
1.647
1.667
1.667
1.657
1.662
1.681
1.686
1.672
1.672
1.691
1.691
1.681
1.681
1.691
1.696
1.676
1.662
1.672
1.681
1.676
1.672
1.681
1.706
1.701
1.686
1.696
1.716
1.72
1.711
1.706
1.725
1.725
1.706
1.696
1.706
1.706
1.696
1.681
1.681
1.686
1.662
1.647
1.657
1.667
1.662
1.647
1.647
1.657
1.657
1.652
1.672
1.696
1.696
1.676
1.662
1.667
1.667
1.642
1.637
1.647
1.647
1.632
1.623
1.637
1.657
1.647
1.637
1.652
1.672
1.676
1.681
1.691
1.696
1.681
1.657
1.662
1.681
1.696
1.701
1.73
1.794
1.852
1.891
1.95
2.019
2.067
2.102
2.116
2.126
2.111
2.048
1.97
1.906
1.833
1.74
1.657
1.608
1.588
1.564
1.549
1.559
1.579
1.588
1.598
1.618
1.642
1.652
1.642
1.652
1.681
1.691
1.681
1.662
1.657
1.657
1.632
1.623
1.642
1.657
1.652
1.647
1.662
1.681
1.676
1.662
1.667
1.681
1.676
1.662
1.657
1.672
1.681
1.667
1.672
1.696
1.706
1.701
1.691
1.691
1.696
1.667
1.647
1.657
1.667
1.657
1.652
1.657
1.676
1.672
1.657
1.672
1.691
1.686
1.672
1.672
1.686
1.696
1.681
1.686
1.701
1.711
1.711
1.716
1.74
1.76
1.75
1.74
1.755
1.76
1.745
1.73
1.725
1.73
1.716
1.696
1.706
1.725
1.73
1.72
1.73
1.76
1.774
1.764
1.769
1.789
1.789
1.779
1.769
1.774
1.784
1.769
1.755
1.76
1.76
1.75
1.74
1.755
1.774
1.774
1.764
1.789
1.813
1.818
1.813
1.813
1.823
1.818
1.794
1.789
1.799
1.799
1.779
1.76
1.755
1.75
1.72
1.701
1.696
1.691
1.676
1.662
1.657
1.667
1.657
1.632
1.637
1.647
1.642
1.632
1.632
1.647
1.652
1.637
1.642
1.662
1.667
1.652
1.637
1.637
1.637
1.608
1.603
1.623
1.642
1.647
1.647
1.667
1.691
1.691
1.676
1.676
1.681
1.662
1.642
1.628
1.632
1.632
1.608
1.608
1.623
1.637
1.637
1.637
1.642
1.657
1.637
1.632
1.642
1.647
1.637
1.632
1.642
1.657
1.647
1.642
1.662
1.681
1.681
1.667
1.662
1.672
1.667
1.647
1.647
1.657
1.657
1.647
1.642
1.652
1.662
1.647
1.642
1.657
1.672
1.672
1.672
1.686
1.706
1.701
1.676
1.672
1.667
1.642
1.618
1.618
1.642
1.657
1.647
1.657
1.686
1.701
1.696
1.691
1.691
1.691
1.662
1.637
1.642
1.647
1.637
1.628
1.637
1.647
1.642
1.628
1.647
1.672
1.676
1.667
1.662
1.672
1.676
1.657
1.667
1.676
1.672
1.662
1.647
1.657
1.667
1.642
1.637
1.652
1.667
1.672
1.672
1.686
1.706
1.696
1.681
1.691
1.696
1.691
1.672
1.667
1.681
1.681
1.667
1.667
1.691
1.696
1.686
1.672
1.681
1.696
1.691
1.691
1.716
1.73
1.725
1.716
1.716
1.72
1.711
1.696
1.701
1.716
1.711
1.691
1.686
1.706
1.706
1.686
1.681
1.696
1.691
1.686
1.686
1.701
1.706
1.681
1.662
1.667
1.667
1.662
1.657
1.667
1.681
1.676
1.652
1.652
1.667
1.662
1.647
1.652
1.676
1.686
1.676
1.681
1.701
1.701
1.686
1.667
1.662
1.657
1.628
1.613
1.632
1.652
1.652
1.652
1.667
1.696
1.701
1.701
1.73
1.764
1.789
1.813
1.852
1.906
1.95
1.975
2.009
2.053
2.067
2.053
2.028
2.004
1.96
1.882
1.799
1.74
1.681
1.628
1.584
1.569
1.579
1.569
1.564
1.584
1.613
1.628
1.632
1.647
1.672
1.676
1.667
1.672
1.686
1.676
1.657
1.647
1.657
1.662
1.652
1.652
1.672
1.686
1.681
1.667
1.657
1.662
1.647
1.628
1.637
1.657
1.662
1.657
1.667
1.696
1.706
1.686
1.681
1.696
1.696
1.686
1.681
1.686
1.691
1.676
1.672
1.686
1.696
1.691
1.681
1.686
1.706
1.706
1.696
1.711
1.725
1.73
1.725
1.725
1.74
1.735
1.711
1.706
1.716
1.706
1.696
1.691
1.716
1.735
1.73
1.73
1.745
1.74
1.716
1.701
1.711
1.735
1.73
1.725
1.75
1.779
1.784
1.774
1.769
1.774
1.764
1.745
1.75
1.774
1.794
1.799
1.804
1.823
1.833
1.818
1.804
1.813
1.818
1.808
1.794
1.804
1.813
1.804
1.784
1.794
1.813
1.808
1.799
1.779
1.774
1.76
1.735
1.735
1.745
1.75
1.74
1.735
1.74
1.74
1.711
1.696
1.696
1.696
1.681
1.662
1.672
1.691
1.686
1.676
1.681
1.691
1.676
1.652
1.647
1.657
1.657
1.637
1.637
1.647
1.647
1.637
1.628
1.637
1.642
1.628
1.628
1.647
1.657
1.642
1.628
1.628
1.637
1.628
1.613
1.623
1.642
1.637
1.632
1.637
1.652
1.652
1.632
1.632
1.647
1.642
1.632
1.628
1.642
1.662
1.657
1.662
1.681
1.691
1.676
1.667
1.667
1.672
1.642
1.613
1.613
1.628
1.632
1.632
1.642
1.662
1.662
1.637
1.637
1.662
1.662
1.657
1.652
1.662
1.667
1.647
1.647
1.667
1.681
1.667
1.662
1.672
1.686
1.681
1.667
1.672
1.672
1.657
1.642
1.642
1.657
1.662
1.647
1.652
1.672
1.672
1.652
1.647
1.667
1.676
1.657
1.652
1.667
1.667
1.652
1.637
1.637
1.642
1.628
1.608
1.613
1.637
1.652
1.662
1.672
1.691
1.696
1.681
1.686
1.696
1.691
1.672
1.657
1.667
1.676
1.662
1.657
1.667
1.676
1.662
1.647
1.652
1.662
1.647
1.632
1.647
1.662
1.667
1.667
1.667
1.686
1.686
1.672
1.681
1.701
1.701
1.686
1.681
1.691
1.706
1.686
1.681
1.701
1.711
1.706
1.706
1.72
1.735
1.72
1.706
1.711
1.72
1.706
1.686
1.676
1.691
1.691
1.676
1.681
1.701
1.701
1.681
1.672
1.672
1.662
1.637
1.628
1.647
1.662
1.662
1.667
1.681
1.701
1.686
1.667
1.667
1.662
1.642
1.628
1.637
1.657
1.672
1.667
1.676
1.696
1.696
1.681
1.667
1.672
1.672
1.647
1.642
1.657
1.667
1.662
1.662
1.672
1.696
1.701
1.711
1.755
1.808
1.857
1.896
1.94
1.999
2.033
2.048
2.063
2.072
2.043
1.989
1.931
1.872
1.804
1.716
1.647
1.618
1.593
1.574
1.564
1.584
1.613
1.618
1.618
1.637
1.657
1.657
1.652
1.657
1.676
1.676
1.652
1.647
1.657
1.657
1.652
1.657
1.672
1.672
1.652
1.657
1.681
1.691
1.676
1.662
1.667
1.676
1.662
1.642
1.652
1.667
1.676
1.672
1.676
1.691
1.691
1.662
1.662
1.676
1.681
1.662
1.657
1.672
1.686
1.672
1.667
1.672
1.672
1.657
1.652
1.667
1.691
1.691
1.696
1.72
1.74
1.735
1.725
1.72
1.73
1.725
1.701
1.701
1.711
1.706
1.691
1.686
1.696
1.701
1.681
1.676
1.701
1.72
1.725
1.72
1.72
1.73
1.716
1.706
1.716
1.74
1.745
1.745
1.76
1.789
1.794
1.779
1.779
1.784
1.769
1.755
1.745
1.76
1.774
1.769
1.779
1.804
1.813
1.808
1.799
1.799
1.804
1.774
1.755
1.76
1.769
1.76
1.745
1.74
1.75
1.735
1.706
1.706
1.716
1.716
1.706
1.691
1.701
1.706
1.686
1.681
1.696
1.696
1.681
1.667
1.672
1.676
1.657
1.632
1.632
1.637
1.623
1.608
1.618
1.637
1.647
1.637
1.637
1.652
1.657
1.647
1.642
1.647
1.642
1.618
1.613
1.623
1.623
1.608
1.593
1.603
1.618
1.608
1.603
1.623
1.642
1.652
1.647
1.652
1.662
1.652
1.632
1.628
1.632
1.628
1.618
1.618
1.637
1.647
1.637
1.637
1.652
1.662
1.657
1.647
1.652
1.662
1.657
1.647
1.667
1.686
1.686
1.672
1.667
1.676
1.667
1.642
1.637
1.652
1.652
1.642
1.637
1.652
1.657
1.642
1.637
1.647
1.657
1.647
1.642
1.647
1.657
1.642
1.628
1.628
1.637
1.637
1.628
1.632
1.657
1.662
1.652
1.667
1.681
1.676
1.667
1.662
1.676
1.681
1.662
1.652
1.667
1.667
1.657
1.642
1.647
1.662
1.657
1.652
1.672
1.681
1.676
1.667
1.667
1.672
1.662
1.637
1.637
1.652
1.647
1.637
1.637
1.657
1.667
1.647
1.647
1.662
1.672
1.662
1.647
1.642
1.652
1.637
1.632
1.657
1.681
1.691
1.681
1.686
1.701
1.696
1.676
1.681
1.696
1.686
1.672
1.667
1.681
1.691
1.672
1.672
1.691
1.701
1.701
1.696
1.706
1.706
1.681
1.662
1.672
1.691
1.691
1.691
1.706
1.73
1.735
1.716
1.711
1.711
1.696
1.676
1.672
1.681
1.681
1.662
1.657
1.681
1.691
1.676
1.667
1.667
1.681
1.662
1.647
1.662
1.676
1.667
1.652
1.652
1.667
1.667
1.652
1.662
1.681
1.681
1.667
1.657
1.667
1.667
1.642
1.642
1.657
1.662
1.657
1.657
1.676
1.686
1.662
1.652
1.667
1.696
1.72
1.755
1.804
1.867
1.916
1.955
2.014
2.067
2.102
2.107
2.092
2.077
2.043
1.97
1.901
1.838
1.76
1.681
1.618
1.593
1.588
1.564
1.559
1.579
1.598
1.603
1.613
1.637
1.667
1.676
1.667
1.672
1.686
1.676
1.657
1.642
1.642
1.642
1.623
1.632
1.657
1.676
1.681
1.681
1.691
1.706
1.686
1.667
1.667
1.676
1.667
1.652
1.657
1.667
1.662
1.652
1.662
1.686
1.691
1.681
1.681
1.691
1.691
1.667
1.667
1.686
1.701
1.696
1.681
1.686
1.691
1.681
1.672
1.681
1.686
1.676
1.676
1.686
1.711
1.716
1.706
1.711
1.725
1.73
1.73
1.73
1.735
1.725
1.696
1.691
1.701
1.706
1.701
1.701
1.72
1.745
1.74
1.745
1.76
1.769
1.755
1.74
1.73
1.735
1.725
1.706
1.716
1.74
1.76
1.764
1.769
1.789
1.808
1.799
1.804
1.808
1.804
1.789
1.784
1.799
1.813
1.799
1.784
1.799
1.804
1.794
1.779
1.784
1.789
1.769
1.75
1.755
1.769
1.76
1.74
1.725
1.73
1.73
1.711
1.701
1.701
1.696
1.681
1.667
1.662
1.667
1.642
1.628
1.642
1.657
1.647
1.628
1.623
1.642
1.642
1.632
1.642
1.657
1.652
1.652
1.657
1.672
1.667
1.637
1.628
1.632
1.637
1.628
1.628
1.637
1.647
1.632
1.618
1.623
1.618
1.603
1.593
1.598
1.618
1.618
1.613
1.623
1.647
1.652
1.647
1.647
1.652
1.652
1.628
1.613
1.618
1.623
1.618
1.613
1.628
1.652
1.652
1.652
1.676
1.686
1.681
1.667
1.667
1.676
1.667
1.652
1.662
1.676
1.676
1.662
1.647
1.647
1.642
1.613
1.613
1.632
1.642
1.637
1.637
1.657
1.672
1.662
1.662
1.672
1.676
1.662
1.652
1.647
1.657
1.647
1.632
1.637
1.657
1.652
1.632
1.628
1.637
1.642
1.628
1.632
1.657
1.672
1.676
1.686
1.701
1.716
1.691
1.667
1.662
1.667
1.662
1.652
1.652
1.667
1.657
1.642
1.642
1.647
1.637
1.623
1.628
1.657
1.672
1.662
1.662
1.676
1.667
1.647
1.632
1.637
1.647
1.632
1.632
1.647
1.672
1.676
1.676
1.681
1.691
1.681
1.652
1.652
1.662
1.662
1.652
1.652
1.667
1.676
1.667
1.676
1.696
1.696
1.686
1.672
1.676
1.672
1.652
1.647
1.672
1.686
1.686
1.676
1.681
1.696
1.696
1.686
1.696
1.711
1.716
1.711
1.716
1.725
1.725
1.701
1.706
1.72
1.72
1.706
1.686
1.691
1.701
1.681
1.667
1.681
1.696
1.696
1.686
1.686
1.701
1.686
1.662
1.657
1.657
1.642
1.632
1.642
1.667
1.681
1.667
1.667
1.681
1.686
1.676
1.667
1.667
1.672
1.652
1.647
1.662
1.672
1.662
1.647
1.652
1.667
1.662
1.647
1.657
1.681
1.681
1.676
1.686
1.725
1.75
1.76
1.794
1.848
1.896
1.935
1.979
2.033
2.082
2.087
2.082
2.077
2.053
1.999
1.926
1.857
1.804
1.73
1.652
1.618
1.598
1.579
1.564
1.569
1.593
1.608
1.608
1.628
1.657
1.672
1.672
1.672
1.681
1.686
1.657
1.647
1.662
1.681
1.672
1.662
1.662
1.676
1.672
1.662
1.676
1.696
1.691
1.681
1.681
1.691
1.691
1.672
1.667
1.667
1.657
1.642
1.642
1.667
1.686
1.681
1.681
1.706
1.716
1.711
1.696
1.701
1.706
1.691
1.667
1.672
1.691
1.696
1.686
1.681
1.686
1.691
1.676
1.686
1.716
1.735
1.735
1.73
1.735
1.745
1.725
1.716
1.725
1.735
1.73
1.725
1.735
1.75
1.735
1.711
1.716
1.725
1.72
1.711
1.72
1.745
1.76
1.745
1.745
1.76
1.755
1.74
1.73
1.745
1.755
1.74
1.745
1.764
1.779
1.774
1.769
1.779
1.794
1.794
1.789
1.804
1.823
1.823
1.813
1.808
1.818
1.813
1.789
1.779
1.789
1.784
1.769
1.76
1.764
1.779
1.76
1.75
1.755
1.755
1.735
1.711
1.706
1.711
1.686
1.662
1.662
1.676
1.676
1.667
1.672
1.681
1.672
1.642
1.642
1.652
1.652
1.642
1.637
1.652
1.667
1.652
1.642
1.652
1.657
1.642
1.632
1.637
1.647
1.637
1.628
1.642
1.662
1.662
1.652
1.642
1.652
1.647
1.628
1.623
1.632
1.632
1.618
1.613
1.628
1.647
1.637
1.632
1.657
1.672
1.667
1.657
1.657
1.672
1.662
1.647
1.657
1.672
1.672
1.657
1.652
1.667
1.667
1.647
1.652
1.667
1.667
1.662
1.662
1.676
1.691
1.672
1.657
1.672
1.676
1.667
1.657
1.672
1.686
1.676
1.657
1.667
1.681
1.672
1.652
1.642
1.647
1.652
1.647
1.662
1.686
1.691
1.686
1.686
1.696
1.701
1.672
1.662
1.667
1.672
1.662
1.657
1.672
1.691
1.676
1.657
1.657
1.672
1.672
1.667
1.681
1.706
1.716
1.706
1.711
1.716
1.701
1.672
1.642
1.637
1.637
1.618
1.628
1.662
1.686
1.686
1.676
1.676
1.681
1.667
1.647
1.657
1.676
1.686
1.691
1.706
1.72
1.716
1.686
1.672
1.672
1.662
1.652
1.647
1.672
1.696
1.696
1.696
1.711
1.711
1.691
1.667
1.662
1.672
1.662
1.642
1.657
1.676
1.686
1.686
1.691
1.706
1.701
1.676
1.676
1.686
1.686
1.672
1.667
1.686
1.701
1.696
1.706
1.73
1.75
1.745
1.735
1.74
1.745
1.725
1.706
1.706
1.706
1.686
1.672
1.676
1.701
1.711
1.701
1.701
1.716
1.716
1.701
1.691
1.691
1.681
1.652
1.647
1.672
1.691
1.686
1.676
1.681
1.696
1.681
1.667
1.672
1.686
1.681
1.672
1.676
1.696
1.696
1.681
1.676
1.686
1.681
1.667
1.657
1.667
1.676
1.667
1.657
1.657
1.662
1.662
1.662
1.676
1.696
1.696
1.701
1.75
1.808
1.852
1.891
1.94
2.009
2.058
2.082
2.111
2.136
2.131
2.092
2.038
1.979
1.906
1.799
1.716
1.662
1.623
1.574
1.549
1.554
1.579
1.584
1.593
1.623
1.657
1.667
1.667
1.672
1.691
1.681
1.657
1.652
1.652
1.642
1.632
1.632
1.657
1.672
1.662
1.662
1.681
1.691
1.686
1.676
1.681
1.696
1.686
1.686
1.706
1.72
1.716
1.701
1.696
1.701
1.686
1.662
1.662
1.676
1.676
1.672
1.672
1.696
1.711
1.691
1.686
1.691
1.696
1.681
1.662
1.662
1.676
1.672
1.676
1.706
1.735
1.74
1.73
1.735
1.75
1.74
1.711
1.701
1.716
1.716
1.711
1.706
1.716
1.73
1.725
1.735
1.76
1.769
1.764
1.76
1.764
1.779
1.764
1.75
1.75
1.75
1.74
1.73
1.745
1.769
1.784
1.779
1.794
1.804
1.799
1.779
1.769
1.769
1.769
1.75
1.74
1.755
1.769
1.774
1.784
1.804
1.823
1.813
1.808
1.823
1.838
1.828
1.808
1.789
1.789
1.774
1.745
1.75
1.764
1.769
1.755
1.74
1.735
1.72
1.676
1.652
1.657
1.662
1.662
1.667
1.691
1.716
1.711
1.701
1.711
1.711
1.686
1.647
1.623
1.623
1.613
1.598
1.608
1.632
1.637
1.637
1.637
1.657
1.657
1.628
1.618
1.628
1.632
1.628
1.628
1.647
1.667
1.662
1.647
1.652
1.652
1.637
1.623
1.618
1.632
1.632
1.623
1.632
1.657
1.662
1.657
1.652
1.662
1.667
1.642
1.637
1.647
1.652
1.637
1.623
1.628
1.637
1.623
1.613
1.628
1.642
1.642
1.637
1.647
1.672
1.672
1.657
1.652
1.657
1.647
1.628
1.618
1.628
1.642
1.632
1.637
1.662
1.672
1.667
1.657
1.667
1.672
1.652
1.632
1.637
1.642
1.632
1.623
1.632
1.657
1.657
1.647
1.657
1.681
1.681
1.667
1.652
1.657
1.662
1.637
1.628
1.642
1.647
1.642
1.632
1.642
1.652
1.642
1.632
1.647
1.662
1.657
1.647
1.657
1.672
1.667
1.642
1.637
1.642
1.642
1.642
1.647
1.662
1.662
1.637
1.632
1.642
1.652
1.647
1.647
1.662
1.681
1.676
1.672
1.686
1.696
1.681
1.662
1.657
1.672
1.667
1.657
1.667
1.681
1.691
1.681
1.676
1.672
1.652
1.613
1.603
1.637
1.657
1.657
1.657
1.681
1.706
1.706
1.701
1.72
1.725
1.711
1.696
1.696
1.716
1.72
1.706
1.711
1.72
1.711
1.696
1.691
1.701
1.701
1.681
1.681
1.696
1.696
1.686
1.672
1.672
1.676
1.652
1.632
1.642
1.657
1.652
1.637
1.637
1.652
1.642
1.623
1.628
1.647
1.652
1.637
1.632
1.652
1.667
1.662
1.662
1.672
1.676
1.672
1.667
1.681
1.691
1.676
1.662
1.676
1.686
1.681
1.667
1.672
1.696
1.711
1.72
1.76
1.818
1.862
1.901
1.955
2.019
2.067
2.082
2.097
2.107
2.087
2.028
1.955
1.882
1.804
1.701
1.613
1.574
1.559
1.549
1.544
1.564
1.598
1.618
1.623
1.657
1.681
1.676
1.662
1.657
1.672
1.676
1.657
1.657
1.672
1.681
1.672
1.667
1.681
1.686
1.662
1.647
1.657
1.662
1.657
1.647
1.652
1.672
1.667
1.652
1.662
1.676
1.676
1.662
1.662
1.676
1.686
1.667
1.667
1.681
1.681
1.667
1.657
1.672
1.681
1.667
1.657
1.672
1.686
1.686
1.672
1.667
1.676
1.681
1.676
1.696
1.72
1.725
1.725
1.73
1.745
1.74
1.706
1.696
1.701
1.701
1.701
1.701
1.72
1.735
1.725
1.72
1.735
1.745
1.74
1.73
1.735
1.755
1.745
1.725
1.725
1.735
1.73
1.716
1.72
1.745
1.764
1.764
1.779
1.794
1.799
1.789
1.779
1.779
1.779
1.76
1.755
1.774
1.799
1.804
1.804
1.818
1.833
1.818
1.794
1.789
1.784
1.774
1.76
1.755
1.764
1.76
1.735
1.725
1.735
1.735
1.72
1.711
1.711
1.711
1.686
1.681
1.696
1.706
1.691
1.672
1.667
1.676
1.662
1.637
1.642
1.647
1.632
1.613
1.603
1.628
1.637
1.632
1.637
1.652
1.652
1.637
1.632
1.637
1.642
1.623
1.623
1.642
1.662
1.657
1.647
1.642
1.652
1.637
1.613
1.618
1.632
1.628
1.623
1.628
1.647
1.647
1.628
1.632
1.657
1.667
1.667
1.662
1.667
1.676
1.647
1.632
1.647
1.652
1.647
1.642
1.657
1.686
1.686
1.667
1.667
1.667
1.647
1.632
1.628
1.642
1.642
1.628
1.637
1.662
1.676
1.672
1.662
1.667
1.672
1.652
1.642
1.652
1.667
1.662
1.652
1.652
1.672
1.672
1.662
1.676
1.696
1.696
1.691
1.686
1.696
1.686
1.647
1.642
1.657
1.662
1.657
1.652
1.662
1.672
1.657
1.642
1.652
1.657
1.642
1.637
1.642
1.667
1.662
1.657
1.672
1.691
1.691
1.676
1.672
1.681
1.681
1.662
1.662
1.672
1.662
1.647
1.642
1.657
1.676
1.667
1.662
1.681
1.701
1.696
1.691
1.691
1.706
1.686
1.667
1.672
1.686
1.681
1.667
1.662
1.667
1.672
1.652
1.657
1.667
1.672
1.672
1.672
1.691
1.706
1.696
1.686
1.701
1.716
1.711
1.701
1.706
1.716
1.711
1.696
1.706
1.72
1.72
1.72
1.725
1.74
1.735
1.716
1.716
1.73
1.735
1.716
1.701
1.706
1.711
1.696
1.681
1.686
1.686
1.667
1.642
1.632
1.632
1.623
1.608
1.618
1.637
1.642
1.642
1.647
1.676
1.686
1.667
1.667
1.686
1.686
1.672
1.662
1.667
1.676
1.657
1.647
1.662
1.681
1.681
1.681
1.691
1.701
1.691
1.672
1.686
1.706
1.725
1.75
1.799
1.877
1.931
1.96
2.004
2.058
2.082
2.082
2.067
2.058
2.033
1.97
1.911
1.862
1.804
1.73
1.662
1.628
1.608
1.584
1.569
1.588
1.608
1.618
1.613
1.623
1.642
1.647
1.637
1.652
1.676
1.686
1.676
1.667
1.676
1.681
1.662
1.657
1.667
1.667
1.657
1.647
1.647
1.657
1.647
1.632
1.652
1.681
1.691
1.686
1.701
1.725
1.725
1.706
1.701
1.706
1.696
1.686
1.676
1.691
1.691
1.672
1.667
1.691
1.701
1.696
1.686
1.686
1.696
1.676
1.657
1.667
1.676
1.676
1.672
1.686
1.711
1.72
1.716
1.73
1.75
1.74
1.716
1.706
1.72
1.735
1.72
1.716
1.735
1.75
1.755
1.75
1.755
1.764
1.75
1.735
1.75
1.764
1.76
1.76
1.769
1.789
1.794
1.774
1.779
1.799
1.794
1.779
1.764
1.769
1.779
1.764
1.76
1.774
1.789
1.779
1.774
1.789
1.804
1.799
1.794
1.813
1.838
1.848
1.843
1.848
1.848
1.828
1.789
1.774
1.76
1.74
1.716
1.701
1.716
1.73
1.716
1.711
1.725
1.72
1.701
1.681
1.681
1.686
1.667
1.647
1.662
1.681
1.686
1.676
1.672
1.667
1.652
1.628
1.632
1.647
1.647
1.632
1.632
1.652
1.667
1.642
1.628
1.632
1.632
1.628
1.628
1.642
1.667
1.662
1.652
1.672
1.691
1.681
1.657
1.642
1.642
1.623
1.598
1.608
1.632
1.642
1.642
1.652
1.672
1.681
1.652
1.642
1.647
1.647
1.637
1.637
1.652
1.672
1.662
1.652
1.667
1.676
1.662
1.642
1.632
1.642
1.642
1.632
1.652
1.681
1.691
1.691
1.686
1.701
1.706
1.676
1.662
1.667
1.662
1.647
1.642
1.657
1.672
1.662
1.647
1.662
1.676
1.667
1.652
1.652
1.667
1.662
1.637
1.637
1.647
1.647
1.637
1.637
1.647
1.657
1.642
1.652
1.676
1.691
1.681
1.667
1.662
1.662
1.642
1.628
1.642
1.657
1.662
1.667
1.686
1.716
1.716
1.696
1.696
1.711
1.706
1.686
1.672
1.681
1.686
1.667
1.657
1.657
1.652
1.637
1.632
1.647
1.672
1.672
1.667
1.691
1.706
1.706
1.701
1.711
1.725
1.725
1.706
1.706
1.72
1.72
1.706
1.696
1.701
1.706
1.691
1.691
1.706
1.711
1.696
1.686
1.691
1.696
1.681
1.676
1.696
1.701
1.696
1.681
1.681
1.686
1.681
1.662
1.672
1.691
1.696
1.686
1.681
1.686
1.681
1.647
1.632
1.647
1.657
1.657
1.662
1.672
1.686
1.672
1.652
1.662
1.676
1.676
1.672
1.676
1.691
1.676
1.657
1.657
1.672
1.676
1.686
1.711
1.755
1.804
1.838
1.887
1.95
1.999
2.023
2.043
2.067
2.077
2.048
2.004
1.965
1.911
1.838
1.755
1.696
1.672
1.642
1.603
1.608
1.623
1.628
1.623
1.623
1.637
1.642
1.632
1.637
1.662
1.667
1.657
1.652
1.667
1.686
1.672
1.657
1.672
1.686
1.681
1.667
1.662
1.672
1.662
1.637
1.637
1.652
1.652
1.652
1.662
1.696
1.711
1.701
1.706
1.73
1.74
1.73
1.716
1.716
1.716
1.686
1.662
1.662
1.667
1.662
1.652
1.662
1.681
1.686
1.672
1.686
1.706
1.716
1.711
1.701
1.711
1.716
1.701
1.706
1.72
1.725
1.716
1.706
1.711
1.72
1.706
1.701
1.72
1.735
1.74
1.735
1.74
1.76
1.755
1.745
1.755
1.769
1.769
1.76
1.755
1.769
1.779
1.76
1.755
1.769
1.774
1.769
1.769
1.779
1.794
1.779
1.769
1.779
1.779
1.774
1.76
1.764
1.774
1.779
1.779
1.804
1.838
1.848
1.838
1.828
1.828
1.818
1.789
1.774
1.779
1.769
1.755
1.74
1.745
1.75
1.73
1.706
1.711
1.716
1.701
1.691
1.696
1.706
1.691
1.662
1.657
1.657
1.647
1.632
1.628
1.637
1.642
1.632
1.642
1.657
1.657
1.642
1.628
1.632
1.637
1.613
1.598
1.613
1.623
1.623
1.618
1.628
1.647
1.642
1.628
1.632
1.642
1.632
1.613
1.603
1.613
1.623
1.613
1.628
1.642
1.657
1.652
1.652
1.657
1.662
1.642
1.623
1.632
1.637
1.632
1.628
1.632
1.647
1.642
1.637
1.652
1.667
1.662
1.657
1.652
1.662
1.652
1.628
1.618
1.628
1.628
1.618
1.613
1.628
1.647
1.637
1.628
1.637
1.642
1.637
1.632
1.632
1.642
1.647
1.642
1.667
1.686
1.691
1.681
1.681
1.691
1.686
1.657
1.647
1.652
1.652
1.642
1.632
1.642
1.657
1.652
1.652
1.667
1.676
1.667
1.647
1.637
1.637
1.618
1.598
1.613
1.632
1.642
1.642
1.652
1.667
1.662
1.637
1.628
1.637
1.623
1.598
1.593
1.618
1.652
1.657
1.662
1.676
1.691
1.691
1.686
1.691
1.701
1.686
1.657
1.657
1.676
1.681
1.676
1.676
1.686
1.691
1.672
1.676
1.686
1.691
1.686
1.686
1.701
1.711
1.691
1.681
1.691
1.691
1.681
1.662
1.662
1.672
1.662
1.647
1.662
1.681
1.681
1.662
1.642
1.647
1.647
1.628
1.628
1.647
1.652
1.642
1.642
1.657
1.676
1.662
1.652
1.662
1.667
1.657
1.647
1.652
1.667
1.657
1.642
1.652
1.667
1.657
1.642
1.637
1.647
1.647
1.623
1.623
1.642
1.647
1.647
1.647
1.676
1.701
1.711
1.735
1.789
1.848
1.887
1.926
1.975
2.023
2.033
2.023
2.023
2.019
1.975
1.916
1.852
1.799
1.735
1.647
1.593
1.569
1.559
1.549
1.554
1.584
1.618
1.632
1.647
1.676
1.676
1.652
1.628
1.623
1.642
1.637
1.628
1.642
1.662
1.657
1.647
1.652
1.672
1.672
1.657
1.657
1.672
1.676
1.667
1.652
1.652
1.652
1.628
1.618
1.642
1.667
1.681
1.686
1.696
1.711
1.691
1.657
1.642
1.642
1.632
1.628
1.632
1.652
1.657
1.652
1.662
1.681
1.686
1.681
1.681
1.701
1.711
1.691
1.681
1.691
1.701
1.691
1.681
1.696
1.72
1.72
1.711
1.72
1.73
1.72
1.701
1.691
1.701
1.701
1.691
1.701
1.725
1.74
1.74
1.735
1.75
1.755
1.73
1.72
1.735
1.745
1.745
1.735
1.745
1.769
1.764
1.75
1.764
1.779
1.76
1.735
1.725
1.74
1.745
1.735
1.755
1.784
1.804
1.813
1.818
1.828
1.833
1.808
1.794
1.799
1.794
1.774
1.755
1.75
1.755
1.74
1.716
1.716
1.725
1.716
1.701
1.691
1.696
1.686
1.652
1.637
1.647
1.642
1.632
1.628
1.647
1.657
1.637
1.628
1.637
1.642
1.632
1.618
1.623
1.632
1.623
1.613
1.623
1.642
1.637
1.623
1.623
1.637
1.637
1.623
1.628
1.647
1.657
1.647
1.642
1.652
1.657
1.632
1.623
1.632
1.632
1.613
1.598
1.608
1.628
1.618
1.603
1.603
1.603
1.588
1.574
1.584
1.618
1.637
1.642
1.662
1.701
1.711
1.696
1.676
1.662
1.647
1.613
1.598
1.608
1.618
1.628
1.642
1.662
1.691
1.686
1.672
1.681
1.686
1.672
1.652
1.642
1.652
1.647
1.618
1.623
1.642
1.647
1.642
1.642
1.652
1.657
1.628
1.613
1.623
1.637
1.632
1.628
1.637
1.657
1.657
1.652
1.672
1.686
1.681
1.662
1.657
1.667
1.662
1.647
1.657
1.676
1.681
1.667
1.657
1.662
1.667
1.652
1.642
1.652
1.657
1.647
1.637
1.647
1.667
1.657
1.637
1.647
1.662
1.667
1.657
1.657
1.672
1.672
1.652
1.652
1.662
1.662
1.647
1.647
1.667
1.681
1.676
1.681
1.711
1.725
1.72
1.711
1.711
1.72
1.706
1.696
1.711
1.72
1.716
1.696
1.686
1.686
1.676
1.647
1.652
1.681
1.691
1.691
1.686
1.696
1.701
1.672
1.642
1.632
1.628
1.623
1.623
1.647
1.672
1.667
1.647
1.657
1.672
1.667
1.652
1.657
1.672
1.672
1.657
1.662
1.667
1.657
1.632
1.628
1.642
1.657
1.647
1.652
1.686
1.696
1.681
1.667
1.667
1.672
1.657
1.647
1.672
1.716
1.76
1.808
1.862
1.931
1.979
2.009
2.048
2.087
2.097
2.077
2.043
2.009
1.965
1.882
1.804
1.74
1.676
1.613
1.574
1.564
1.574
1.574
1.579
1.608
1.637
1.647
1.642
1.647
1.667
1.672
1.647
1.647
1.672
1.672
1.662
1.652
1.652
1.647
1.628
1.628
1.647
1.657
1.647
1.642
1.647
1.667
1.657
1.652
1.672
1.691
1.686
1.667
1.662
1.672
1.662
1.637
1.632
1.647
1.647
1.647
1.652
1.676
1.701
1.701
1.706
1.72
1.72
1.691
1.672
1.676
1.686
1.667
1.647
1.657
1.686
1.701
1.711
1.725
1.745
1.74
1.706
1.696
1.696
1.691
1.686
1.686
1.706
1.716
1.701
1.706
1.716
1.711
1.691
1.681
1.686
1.711
1.701
1.701
1.735
1.769
1.774
1.769
1.769
1.784
1.774
1.755
1.755
1.764
1.769
1.769
1.769
1.794
1.808
1.789
1.784
1.799
1.799
1.784
1.774
1.774
1.784
1.764
1.745
1.755
1.774
1.774
1.76
1.76
1.769
1.76
1.735
1.73
1.725
1.716
1.696
1.681
1.691
1.706
1.691
1.691
1.711
1.716
1.696
1.662
1.652
1.657
1.642
1.632
1.642
1.657
1.657
1.652
1.657
1.667
1.652
1.628
1.628
1.647
1.647
1.642
1.637
1.647
1.647
1.628
1.623
1.632
1.637
1.632
1.618
1.623
1.632
1.618
1.603
1.613
1.623
1.613
1.603
1.603
1.623
1.628
1.623
1.632
1.647
1.652
1.642
1.642
1.652
1.657
1.628
1.623
1.642
1.652
1.647
1.642
1.657
1.676
1.662
1.637
1.632
1.637
1.632
1.618
1.623
1.647
1.652
1.642
1.657
1.672
1.676
1.672
1.662
1.662
1.667
1.652
1.657
1.676
1.676
1.657
1.637
1.637
1.642
1.628
1.623
1.642
1.657
1.652
1.647
1.652
1.672
1.662
1.642
1.642
1.657
1.662
1.652
1.652
1.672
1.676
1.662
1.652
1.657
1.657
1.652
1.642
1.652
1.667
1.652
1.647
1.662
1.676
1.676
1.667
1.672
1.686
1.676
1.657
1.657
1.672
1.667
1.657
1.652
1.662
1.662
1.637
1.632
1.647
1.657
1.652
1.652
1.667
1.691
1.686
1.676
1.691
1.696
1.686
1.672
1.672
1.686
1.686
1.676
1.691
1.72
1.72
1.711
1.706
1.72
1.72
1.701
1.701
1.716
1.725
1.711
1.696
1.696
1.706
1.686
1.672
1.676
1.681
1.676
1.676
1.681
1.696
1.686
1.657
1.647
1.652
1.652
1.642
1.637
1.652
1.662
1.647
1.657
1.676
1.686
1.681
1.667
1.667
1.667
1.642
1.628
1.642
1.657
1.657
1.657
1.667
1.691
1.686
1.667
1.672
1.676
1.662
1.642
1.632
1.652
1.676
1.686
1.73
1.799
1.857
1.901
1.95
2.014
2.072
2.097
2.107
2.111
2.102
2.063
2.009
1.95
1.887
1.799
1.706
1.647
1.613
1.588
1.574
1.579
1.603
1.628
1.628
1.642
1.667
1.681
1.676
1.667
1.676
1.681
1.657
1.642
1.642
1.647
1.632
1.623
1.628
1.642
1.637
1.628
1.642
1.662
1.662
1.647
1.642
1.657
1.667
1.652
1.647
1.667
1.676
1.681
1.676
1.686
1.691
1.672
1.662
1.672
1.676
1.662
1.642
1.647
1.676
1.691
1.686
1.701
1.716
1.711
1.696
1.686
1.696
1.696
1.676
1.681
1.701
1.72
1.716
1.716
1.716
1.711
1.681
1.667
1.681
1.696
1.706
1.711
1.725
1.75
1.74
1.716
1.711
1.72
1.716
1.706
1.711
1.735
1.75
1.74
1.755
1.774
1.779
1.764
1.75
1.755
1.76
1.755
1.75
1.769
1.784
1.784
1.774
1.774
1.784
1.779
1.764
1.774
1.794
1.794
1.789
1.789
1.799
1.799
1.769
1.76
1.769
1.774
1.764
1.764
1.774
1.784
1.774
1.764
1.764
1.764
1.74
1.72
1.716
1.72
1.701
1.676
1.676
1.681
1.667
1.647
1.637
1.642
1.647
1.637
1.642
1.657
1.657
1.642
1.628
1.632
1.647
1.632
1.618
1.618
1.623
1.613
1.613
1.623
1.637
1.628
1.618
1.632
1.662
1.672
1.662
1.652
1.657
1.647
1.623
1.623
1.637
1.637
1.623
1.618
1.628
1.642
1.628
1.623
1.642
1.662
1.657
1.647
1.652
1.662
1.647
1.613
1.603
1.608
1.603
1.598
1.603
1.628
1.632
1.623
1.637
1.667
1.672
1.672
1.676
1.701
1.72
1.701
1.676
1.676
1.672
1.652
1.628
1.613
1.623
1.623
1.618
1.647
1.672
1.686
1.681
1.686
1.706
1.701
1.676
1.662
1.667
1.662
1.647
1.632
1.637
1.647
1.632
1.628
1.647
1.657
1.652
1.637
1.642
1.662
1.657
1.642
1.647
1.657
1.652
1.628
1.623
1.632
1.642
1.637
1.642
1.672
1.686
1.681
1.676
1.681
1.691
1.667
1.652
1.657
1.667
1.662
1.662
1.672
1.691
1.686
1.672
1.672
1.681
1.672
1.657
1.652
1.662
1.662
1.642
1.647
1.667
1.676
1.672
1.662
1.667
1.672
1.642
1.628
1.642
1.652
1.652
1.652
1.662
1.686
1.686
1.676
1.686
1.701
1.701
1.696
1.696
1.711
1.711
1.691
1.691
1.711
1.706
1.696
1.691
1.706
1.72
1.706
1.701
1.716
1.73
1.725
1.716
1.706
1.706
1.681
1.647
1.642
1.647
1.642
1.632
1.632
1.652
1.662
1.642
1.632
1.647
1.647
1.642
1.647
1.667
1.691
1.686
1.681
1.686
1.681
1.657
1.637
1.637
1.652
1.652
1.647
1.672
1.696
1.701
1.686
1.681
1.691
1.696
1.691
1.711
1.75
1.784
1.804
1.833
1.877
1.921
1.945
1.984
2.043
2.082
2.092
2.082
2.067
2.053
1.994
1.916
1.857
1.804
1.735
1.672
1.628
1.618
1.603
1.579
1.584
1.613
1.632
1.637
1.632
1.642
1.652
1.632
1.628
1.652
1.672
1.672
1.667
1.676
1.686
1.672
1.642
1.642
1.652
1.652
1.652
1.667
1.696
1.711
1.696
1.691
1.691
1.672
1.652
1.642
1.657
1.676
1.667
1.672
1.701
1.716
1.711
1.696
1.686
1.686
1.662
1.647
1.662
1.681
1.686
1.681
1.676
1.691
1.696
1.686
1.696
1.716
1.72
1.706
1.701
1.711
1.72
1.706
1.701
1.716
1.725
1.72
1.72
1.735
1.75
1.74
1.72
1.72
1.73
1.72
1.716
1.73
1.755
1.769
1.76
1.764
1.769
1.76
1.735
1.725
1.73
1.74
1.725
1.725
1.755
1.784
1.804
1.818
1.833
1.852
1.838
1.818
1.818
1.818
1.808
1.799
1.804
1.823
1.833
1.818
1.818
1.828
1.818
1.799
1.779
1.774
1.769
1.745
1.73
1.745
1.75
1.735
1.72
1.725
1.74
1.73
1.716
1.72
1.73
1.725
1.711
1.701
1.711
1.701
1.676
1.672
1.681
1.676
1.657
1.632
1.632
1.632
1.618
1.618
1.642
1.667
1.667
1.667
1.667
1.676
1.667
1.647
1.652
1.657
1.642
1.628
1.623
1.642
1.647
1.637
1.637
1.657
1.662
1.657
1.657
1.672
1.686
1.667
1.652
1.657
1.657
1.647
1.642
1.652
1.667
1.657
1.642
1.647
1.667
1.662
1.647
1.642
1.652
1.647
1.632
1.647
1.676
1.691
1.681
1.667
1.672
1.672
1.647
1.628
1.632
1.642
1.642
1.647
1.672
1.706
1.706
1.696
1.701
1.706
1.696
1.681
1.676
1.686
1.686
1.667
1.667
1.686
1.696
1.686
1.676
1.686
1.691
1.672
1.657
1.672
1.676
1.667
1.652
1.657
1.676
1.667
1.652
1.667
1.681
1.686
1.681
1.681
1.686
1.676
1.647
1.637
1.652
1.662
1.657
1.652
1.667
1.681
1.676
1.676
1.691
1.696
1.681
1.672
1.686
1.716
1.716
1.701
1.701
1.701
1.686
1.662
1.657
1.667
1.662
1.642
1.652
1.676
1.691
1.686
1.681
1.696
1.706
1.691
1.686
1.696
1.711
1.701
1.681
1.676
1.686
1.672
1.652
1.662
1.686
1.696
1.701
1.711
1.735
1.74
1.72
1.716
1.725
1.725
1.716
1.706
1.716
1.72
1.696
1.681
1.691
1.701
1.696
1.676
1.681
1.701
1.706
1.701
1.711
1.72
1.711
1.701
1.696
1.701
1.691
1.662
1.667
1.681
1.686
1.672
1.662
1.672
1.681
1.667
1.662
1.676
1.681
1.667
1.652
1.652
1.657
1.642
1.623
1.637
1.662
1.672
1.672
1.681
1.701
1.701
1.686
1.691
1.711
1.716
1.72
1.735
1.789
1.843
1.872
1.916
1.975
2.028
2.058
2.077
2.087
2.082
2.028
1.96
1.901
1.848
1.774
1.696
1.647
1.628
1.608
1.584
1.584
1.608
1.623
1.623
1.628
1.647
1.662
1.657
1.657
1.676
1.686
1.676
1.672
1.676
1.691
1.681
1.662
1.667
1.681
1.676
1.667
1.667
1.676
1.667
1.642
1.642
1.652
1.652
1.647
1.652
1.672
1.686
1.672
1.672
1.696
1.706
1.696
1.681
1.686
1.706
1.696
1.681
1.691
1.706
1.701
1.696
1.701
1.711
1.706
1.686
1.691
1.716
1.72
1.716
1.716
1.725
1.73
1.706
1.691
1.696
1.691
1.672
1.657
1.667
1.696
1.706
1.706
1.73
1.75
1.755
1.74
1.735
1.75
1.75
1.74
1.74
1.755
1.76
1.76
1.769
1.784
1.789
1.76
1.75
1.769
1.784
1.784
1.779
1.789
1.804
1.794
1.779
1.794
1.808
1.804
1.799
1.794
1.804
1.799
1.784
1.784
1.799
1.804
1.794
1.789
1.799
1.808
1.784
1.774
1.784
1.779
1.76
1.74
1.74
1.745
1.73
1.716
1.725
1.735
1.72
1.701
1.696
1.706
1.691
1.657
1.647
1.652
1.652
1.642
1.632
1.642
1.657
1.647
1.647
1.662
1.667
1.647
1.632
1.628
1.632
1.613
1.593
1.603
1.618
1.623
1.623
1.632
1.652
1.657
1.642
1.647
1.662
1.657
1.637
1.628
1.632
1.642
1.623
1.613
1.623
1.632
1.628
1.623
1.632
1.647
1.632
1.613
1.618
1.632
1.637
1.628
1.637
1.652
1.647
1.618
1.618
1.637
1.637
1.628
1.632
1.652
1.672
1.667
1.672
1.691
1.691
1.667
1.642
1.637
1.642
1.628
1.613
1.623
1.647
1.652
1.647
1.652
1.667
1.672
1.657
1.667
1.681
1.676
1.662
1.652
1.662
1.667
1.642
1.632
1.647
1.652
1.642
1.632
1.637
1.652
1.647
1.637
1.647
1.662
1.662
1.657
1.667
1.681
1.676
1.657
1.652
1.657
1.652
1.632
1.628
1.642
1.652
1.637
1.647
1.672
1.681
1.662
1.642
1.647
1.662
1.647
1.628
1.642
1.667
1.672
1.662
1.667
1.686
1.681
1.652
1.647
1.662
1.667
1.662
1.657
1.672
1.676
1.662
1.657
1.662
1.657
1.637
1.618
1.628
1.642
1.637
1.637
1.657
1.691
1.701
1.696
1.691
1.696
1.676
1.647
1.647
1.667
1.667
1.662
1.672
1.696
1.716
1.706
1.706
1.716
1.72
1.716
1.711
1.725
1.745
1.735
1.72
1.725
1.73
1.711
1.691
1.686
1.686
1.676
1.652
1.657
1.672
1.681
1.672
1.667
1.676
1.681
1.657
1.642
1.652
1.662
1.662
1.662
1.667
1.676
1.652
1.637
1.652
1.672
1.672
1.667
1.672
1.691
1.696
1.686
1.691
1.696
1.686
1.667
1.652
1.662
1.672
1.652
1.647
1.657
1.662
1.657
1.647
1.657
1.686
1.696
1.716
1.769
1.828
1.872
1.921
1.979
2.043
2.082
2.087
2.097
2.097
2.067
2.014
1.95
1.896
1.828
1.735
1.662
1.628
1.593
1.559
1.544
1.564
1.598
1.608
1.618
1.652
1.681
1.681
1.676
1.676
1.681
1.667
1.642
1.642
1.662
1.672
1.672
1.672
1.681
1.691
1.672
1.672
1.691
1.701
1.686
1.676
1.691
1.706
1.696
1.676
1.686
1.686
1.662
1.642
1.637
1.652
1.647
1.637
1.657
1.681
1.691
1.686
1.676
1.681
1.681
1.657
1.652
1.672
1.686
1.686
1.691
1.711
1.725
1.711
1.696
1.701
1.701
1.686
1.681
1.691
1.72
1.73
1.72
1.725
1.74
1.735
1.72
1.706
1.716
1.72
1.706
1.701
1.725
1.74
1.735
1.725
1.73
1.745
1.73
1.72
1.74
1.764
1.764
1.76
1.76
1.784
1.789
1.774
1.784
1.804
1.808
1.804
1.804
1.813
1.808
1.779
1.774
1.789
1.799
1.794
1.789
1.804
1.818
1.804
1.779
1.779
1.769
1.75
1.73
1.735
1.755
1.764
1.764
1.779
1.794
1.789
1.76
1.73
1.716
1.706
1.672
1.667
1.681
1.691
1.686
1.686
1.701
1.716
1.691
1.667
1.662
1.662
1.652
1.652
1.657
1.672
1.662
1.642
1.647
1.662
1.662
1.642
1.628
1.628
1.628
1.608
1.608
1.628
1.642
1.637
1.632
1.647
1.657
1.637
1.628
1.642
1.647
1.642
1.628
1.632
1.652
1.657
1.647
1.657
1.672
1.672
1.652
1.637
1.642
1.642
1.618
1.613
1.628
1.632
1.628
1.632
1.657
1.676
1.667
1.662
1.672
1.676
1.662
1.642
1.637
1.647
1.647
1.637
1.657
1.686
1.696
1.691
1.681
1.691
1.691
1.667
1.652
1.662
1.662
1.647
1.642
1.652
1.672
1.657
1.652
1.672
1.691
1.691
1.681
1.686
1.691
1.681
1.657
1.662
1.676
1.672
1.652
1.642
1.657
1.662
1.642
1.637
1.652
1.662
1.657
1.652
1.667
1.676
1.662
1.652
1.657
1.672
1.667
1.652
1.647
1.657
1.652
1.632
1.637
1.647
1.642
1.642
1.652
1.676
1.686
1.672
1.672
1.696
1.706
1.691
1.672
1.667
1.667
1.647
1.628
1.637
1.657
1.662
1.662
1.672
1.696
1.696
1.676
1.676
1.681
1.672
1.662
1.657
1.672
1.676
1.662
1.662
1.686
1.701
1.701
1.701
1.716
1.74
1.73
1.716
1.716
1.711
1.701
1.691
1.696
1.716
1.711
1.686
1.691
1.696
1.686
1.672
1.657
1.662
1.662
1.637
1.632
1.647
1.657
1.652
1.642
1.647
1.657
1.642
1.628
1.647
1.667
1.667
1.657
1.662
1.681
1.676
1.662
1.667
1.676
1.662
1.642
1.632
1.642
1.647
1.637
1.652
1.676
1.686
1.681
1.667
1.676
1.686
1.672
1.662
1.686
1.716
1.74
1.774
1.828
1.896
1.945
1.979
2.033
2.077
2.087
2.072
2.043
2.014
1.955
1.867
1.794
1.745
1.691
1.642
1.608
1.603
1.613
1.608
1.608
1.632
1.642
1.637
1.628
1.628
1.642
1.637
1.618
1.623
1.642
1.647
1.642
1.642
1.657
1.667
1.657
1.657
1.672
1.676
1.672
1.672
1.681
1.691
1.672
1.657
1.667
1.681
1.676
1.662
1.662
1.667
1.637
1.613
1.623
1.647
1.657
1.667
1.676
1.691
1.696
1.681
1.681
1.701
1.701
1.691
1.686
1.706
1.735
1.73
1.72
1.725
1.73
1.716
1.696
1.696
1.706
1.696
1.672
1.676
1.696
1.701
1.691
1.691
1.706
1.706
1.681
1.676
1.686
1.691
1.681
1.667
1.676
1.691
1.691
1.696
1.725
1.745
1.75
1.75
1.76
1.784
1.784
1.774
1.784
1.794
1.784
1.769
1.764
1.779
1.779
1.76
1.76
1.779
1.789
1.779
1.774
1.784
1.799
1.774
1.755
1.755
1.764
1.75
1.735
1.725
1.74
1.745
1.745
1.769
1.794
1.784
1.764
1.75
1.75
1.74
1.706
1.686
1.681
1.672
1.662
1.652
1.662
1.676
1.667
1.667
1.686
1.701
1.696
1.681
1.667
1.672
1.652
1.618
1.618
1.628
1.632
1.632
1.642
1.662
1.657
1.628
1.618
1.632
1.637
1.632
1.623
1.637
1.657
1.642
1.628
1.628
1.628
1.618
1.608
1.618
1.642
1.652
1.652
1.672
1.686
1.686
1.672
1.657
1.657
1.642
1.613
1.608
1.632
1.642
1.632
1.623
1.637
1.657
1.647
1.637
1.642
1.647
1.642
1.637
1.647
1.676
1.676
1.662
1.672
1.686
1.686
1.676
1.676
1.686
1.676
1.647
1.647
1.667
1.676
1.662
1.647
1.657
1.662
1.652
1.642
1.662
1.676
1.676
1.672
1.676
1.686
1.667
1.647
1.652
1.662
1.657
1.637
1.628
1.642
1.652
1.642
1.652
1.676
1.681
1.672
1.662
1.667
1.672
1.647
1.637
1.652
1.672
1.667
1.662
1.672
1.691
1.686
1.662
1.667
1.672
1.667
1.657
1.667
1.686
1.691
1.662
1.657
1.672
1.676
1.667
1.657
1.662
1.676
1.672
1.667
1.676
1.686
1.676
1.662
1.662
1.676
1.672
1.662
1.676
1.696
1.701
1.696
1.691
1.696
1.691
1.667
1.652
1.657
1.652
1.632
1.618
1.632
1.647
1.637
1.637
1.662
1.681
1.681
1.676
1.686
1.706
1.706
1.686
1.681
1.686
1.681
1.681
1.686
1.706
1.711
1.701
1.711
1.73
1.73
1.72
1.711
1.711
1.716
1.691
1.676
1.686
1.701
1.691
1.681
1.676
1.681
1.681
1.667
1.672
1.676
1.672
1.662
1.652
1.662
1.662
1.642
1.642
1.662
1.672
1.667
1.676
1.696
1.711
1.691
1.672
1.676
1.681
1.672
1.662
1.657
1.662
1.647
1.632
1.647
1.667
1.662
1.652
1.647
1.667
1.676
1.662
1.672
1.706
1.725
1.74
1.764
1.813
1.867
1.896
1.94
2.004
2.063
2.092
2.097
2.092
2.072
2.019
1.945
1.882
1.818
1.74
1.672
1.628
1.613
1.603
1.584
1.593
1.618
1.632
1.642
1.647
1.667
1.676
1.657
1.642
1.652
1.657
1.652
1.642
1.647
1.657
1.642
1.618
1.628
1.637
1.632
1.628
1.632
1.662
1.676
1.662
1.662
1.676
1.676
1.667
1.662
1.672
1.686
1.676
1.672
1.691
1.701
1.696
1.686
1.686
1.691
1.676
1.657
1.662
1.681
1.681
1.667
1.667
1.691
1.696
1.681
1.691
1.716
1.72
1.706
1.691
1.681
1.672
1.642
1.632
1.652
1.672
1.676
1.686
1.711
1.745
1.74
1.72
1.716
1.72
1.706
1.691
1.686
1.706
1.72
1.716
1.735
1.76
1.764
1.755
1.745
1.755
1.769
1.755
1.75
1.755
1.76
1.755
1.75
1.76
1.769
1.75
1.72
1.72
1.745
1.76
1.769
1.779
1.804
1.818
1.813
1.823
1.843
1.838
1.818
1.804
1.799
1.804
1.784
1.774
1.789
1.789
1.769
1.735
1.716
1.706
1.672
1.647
1.647
1.657
1.652
1.657
1.672
1.706
1.72
1.706
1.706
1.72
1.711
1.672
1.632
1.613
1.608
1.598
1.603
1.632
1.667
1.681
1.691
1.706
1.716
1.696
1.657
1.647
1.637
1.618
1.598
1.593
1.613
1.613
1.603
1.613
1.637
1.652
1.652
1.652
1.662
1.667
1.647
1.637
1.647
1.657
1.652
1.642
1.637
1.642
1.623
1.603
1.608
1.618
1.613
1.598
1.613
1.647
1.667
1.662
1.662
1.681
1.672
1.657
1.652
1.667
1.686
1.672
1.662
1.667
1.667
1.657
1.642
1.652
1.672
1.662
1.642
1.657
1.672
1.672
1.652
1.642
1.647
1.637
1.608
1.598
1.613
1.618
1.613
1.613
1.632
1.652
1.652
1.657
1.681
1.706
1.706
1.696
1.696
1.691
1.662
1.632
1.637
1.652
1.657
1.652
1.657
1.681
1.691
1.681
1.681
1.691
1.686
1.662
1.642
1.642
1.642
1.618
1.613
1.628
1.632
1.628
1.628
1.632
1.647
1.637
1.628
1.637
1.662
1.672
1.672
1.672
1.686
1.686
1.662
1.657
1.672
1.672
1.657
1.647
1.662
1.672
1.662
1.657
1.667
1.672
1.662
1.652
1.662
1.676
1.667
1.652
1.662
1.667
1.662
1.652
1.652
1.662
1.662
1.642
1.637
1.642
1.637
1.623
1.613
1.628
1.642
1.642
1.657
1.691
1.725
1.735
1.725
1.725
1.72
1.681
1.647
1.637
1.647
1.642
1.642
1.657
1.686
1.706
1.701
1.706
1.72
1.72
1.706
1.696
1.696
1.696
1.676
1.672
1.691
1.701
1.691
1.676
1.676
1.681
1.672
1.652
1.662
1.681
1.681
1.672
1.672
1.686
1.681
1.667
1.676
1.696
1.696
1.681
1.676
1.686
1.696
1.676
1.667
1.681
1.686
1.676
1.667
1.681
1.701
1.691
1.676
1.681
1.681
1.672
1.662
1.657
1.667
1.662
1.637
1.632
1.652
1.657
1.652
1.652
1.672
1.681
1.672
1.686
1.725
1.76
1.784
1.818
1.872
1.931
1.97
1.999
2.038
2.077
2.082
2.063
2.043
2.019
1.96
1.867
1.784
1.716
1.652
1.593
1.564
1.569
1.588
1.588
1.603
1.637
1.657
1.657
1.652
1.662
1.676
1.667
1.652
1.667
1.681
1.672
1.647
1.623
1.623
1.613
1.588
1.588
1.608
1.623
1.637
1.657
1.686
1.701
1.686
1.676
1.686
1.686
1.676
1.662
1.672
1.686
1.676
1.657
1.672
1.691
1.696
1.691
1.686
1.691
1.686
1.667
1.662
1.672
1.667
1.652
1.647
1.672
1.696
1.701
1.706
1.72
1.72
1.701
1.676
1.672
1.676
1.667
1.667
1.686
1.716
1.716
1.711
1.706
1.711
1.701
1.676
1.676
1.696
1.711
1.72
1.72
1.745
1.76
1.74
1.73
1.735
1.74
1.73
1.725
1.73
1.745
1.735
1.72
1.735
1.755
1.755
1.75
1.755
1.769
1.764
1.745
1.745
1.755
1.75
1.74
1.74
1.769
1.794
1.794
1.804
1.828
1.843
1.833
1.813
1.804
1.799
1.769
1.74
1.74
1.75
1.74
1.725
1.72
1.73
1.716
1.676
1.667
1.672
1.672
1.662
1.662
1.676
1.691
1.676
1.667
1.672
1.667
1.642
1.623
1.628
1.642
1.637
1.628
1.637
1.647
1.637
1.623
1.618
1.632
1.632
1.628
1.647
1.676
1.691
1.681
1.672
1.676
1.672
1.637
1.623
1.637
1.642
1.637
1.628
1.632
1.647
1.632
1.623
1.632
1.652
1.652
1.642
1.652
1.676
1.676
1.647
1.637
1.632
1.618
1.603
1.603
1.618
1.632
1.613
1.613
1.637
1.652
1.647
1.647
1.652
1.652
1.632
1.618
1.642
1.676
1.686
1.686
1.691
1.701
1.681
1.647
1.642
1.652
1.652
1.642
1.652
1.676
1.696
1.691
1.691
1.696
1.681
1.647
1.613
1.603
1.608
1.603
1.608
1.637
1.672
1.681
1.686
1.696
1.711
1.701
1.667
1.667
1.667
1.647
1.623
1.613
1.632
1.652
1.647
1.647
1.667
1.672
1.657
1.642
1.642
1.657
1.647
1.637
1.652
1.672
1.676
1.667
1.662
1.662
1.652
1.628
1.632
1.657
1.662
1.662
1.657
1.672
1.676
1.657
1.652
1.667
1.676
1.676
1.681
1.696
1.711
1.691
1.667
1.672
1.676
1.667
1.657
1.662
1.672
1.667
1.642
1.628
1.623
1.618
1.608
1.613
1.642
1.667
1.667
1.681
1.701
1.706
1.681
1.647
1.628
1.628
1.613
1.613
1.637
1.667
1.681
1.681
1.701
1.716
1.701
1.667
1.672
1.696
1.701
1.686
1.686
1.706
1.725
1.716
1.72
1.73
1.735
1.725
1.711
1.711
1.716
1.696
1.672
1.681
1.696
1.691
1.686
1.701
1.72
1.72
1.701
1.691
1.691
1.676
1.657
1.652
1.667
1.681
1.662
1.662
1.681
1.696
1.681
1.657
1.652
1.657
1.642
1.632
1.647
1.667
1.672
1.676
1.686
1.696
1.686
1.667
1.667
1.681
1.681
1.667
1.667
1.681
1.686
1.667
1.662
1.667
1.662
1.642
1.637
1.657
1.691
1.706
1.725
1.779
1.838
1.877
1.916
1.97
2.038
2.077
2.087
2.107
2.116
2.092
2.033
1.97
1.901
1.818
1.711
1.637
1.603
1.579
1.559
1.559
1.588
1.623
1.637
1.642
1.662
1.676
1.662
1.642
1.637
1.647
1.637
1.623
1.632
1.657
1.662
1.657
1.657
1.667
1.672
1.647
1.642
1.657
1.672
1.672
1.672
1.691
1.711
1.701
1.686
1.696
1.701
1.686
1.667
1.652
1.662
1.657
1.642
1.652
1.676
1.686
1.681
1.681
1.696
1.696
1.672
1.667
1.676
1.681
1.672
1.662
1.672
1.691
1.681
1.672
1.676
1.681
1.676
1.681
1.696
1.72
1.716
1.706
1.725
1.755
1.76
1.745
1.735
1.74
1.74
1.72
1.72
1.74
1.74
1.725
1.711
1.711
1.716
1.701
1.696
1.706
1.711
1.706
1.711
1.73
1.764
1.774
1.774
1.784
1.799
1.799
1.789
1.789
1.799
1.794
1.764
1.755
1.769
1.779
1.774
1.764
1.774
1.789
1.779
1.769
1.784
1.794
1.779
1.769
1.769
1.779
1.764
1.74
1.735
1.745
1.74
1.725
1.716
1.716
1.706
1.672
1.667
1.676
1.686
1.676
1.662
1.667
1.686
1.681
1.667
1.676
1.676
1.662
1.642
1.632
1.637
1.628
1.608
1.613
1.623
1.628
1.623
1.628
1.647
1.652
1.628
1.623
1.637
1.642
1.632
1.623
1.637
1.647
1.632
1.628
1.642
1.652
1.642
1.628
1.637
1.657
1.652
1.632
1.642
1.662
1.662
1.652
1.647
1.657
1.657
1.637
1.632
1.647
1.652
1.647
1.637
1.642
1.647
1.623
1.613
1.632
1.657
1.657
1.647
1.652
1.676
1.681
1.672
1.676
1.686
1.676
1.657
1.647
1.662
1.662
1.637
1.628
1.637
1.642
1.637
1.637
1.647
1.657
1.652
1.647
1.657
1.667
1.657
1.642
1.652
1.676
1.672
1.657
1.667
1.681
1.681
1.676
1.672
1.681
1.672
1.637
1.637
1.662
1.676
1.676
1.667
1.676
1.681
1.667
1.652
1.662
1.667
1.657
1.652
1.667
1.686
1.686
1.667
1.667
1.672
1.657
1.632
1.623
1.637
1.647
1.642
1.657
1.686
1.691
1.672
1.647
1.642
1.642
1.628
1.623
1.647
1.662
1.662
1.667
1.686
1.706
1.706
1.686
1.686
1.691
1.681
1.667
1.662
1.672
1.676
1.657
1.652
1.667
1.676
1.676
1.681
1.696
1.706
1.686
1.662
1.662
1.657
1.637
1.623
1.632
1.657
1.662
1.662
1.681
1.706
1.711
1.691
1.681
1.686
1.686
1.662
1.657
1.681
1.696
1.701
1.711
1.73
1.74
1.716
1.696
1.701
1.706
1.701
1.691
1.696
1.716
1.72
1.716
1.725
1.735
1.716
1.686
1.672
1.672
1.667
1.642
1.642
1.662
1.667
1.657
1.642
1.637
1.642
1.618
1.608
1.628
1.642
1.642
1.642
1.667
1.696
1.691
1.672
1.657
1.652
1.632
1.608
1.598
1.613
1.628
1.632
1.662
1.706
1.735
1.745
1.755
1.774
1.799
1.799
1.818
1.877
1.935
1.979
2.028
2.087
2.131
2.136
2.107
2.077
2.033
1.955
1.862
1.784
1.72
1.657
1.584
1.549
1.549
1.549
1.554
1.559
1.588
1.623
1.632
1.657
1.696
1.72
1.711
1.701
1.701
1.711
1.696
1.672
1.667
1.672
1.667
1.652
1.647
1.652
1.647
1.618
1.613
1.628
1.637
1.637
1.637
1.657
1.676
1.667
1.667
1.686
1.691
1.672
1.657
1.657
1.672
1.667
1.647
1.647
1.662
1.667
1.662
1.662
1.672
1.672
1.657
1.672
1.701
1.716
1.711
1.696
1.706
1.72
1.711
1.701
1.716
1.72
1.716
1.706
1.716
1.73
1.72
1.706
1.711
1.725
1.73
1.725
1.72
1.73
1.716
1.681
1.676
1.696
1.706
1.701
1.701
1.725
1.755
1.755
1.755
1.774
1.789
1.784
1.769
1.764
1.779
1.774
1.76
1.774
1.789
1.794
1.784
1.784
1.794
1.794
1.774
1.764
1.779
1.784
1.784
1.784
1.799
1.813
1.794
1.784
1.799
1.804
1.789
1.769
1.769
1.769
1.745
1.716
1.716
1.725
1.72
1.701
1.701
1.716
1.72
1.696
1.691
1.701
1.691
1.672
1.662
1.672
1.681
1.662
1.647
1.657
1.657
1.637
1.618
1.618
1.632
1.628
1.618
1.632
1.652
1.657
1.652
1.652
1.667
1.672
1.657
1.657
1.667
1.662
1.637
1.618
1.623
1.628
1.613
1.623
1.657
1.676
1.681
1.676
1.681
1.691
1.681
1.662
1.657
1.667
1.667
1.662
1.667
1.686
1.681
1.657
1.652
1.667
1.667
1.662
1.662
1.681
1.691
1.676
1.672
1.681
1.691
1.686
1.676
1.676
1.676
1.662
1.637
1.642
1.657
1.662
1.657
1.672
1.701
1.72
1.716
1.72
1.73
1.725
1.701
1.681
1.676
1.681
1.662
1.652
1.667
1.676
1.672
1.662
1.667
1.681
1.662
1.642
1.647
1.662
1.657
1.652
1.662
1.681
1.686
1.667
1.672
1.681
1.672
1.652
1.637
1.642
1.652
1.637
1.637
1.662
1.686
1.696
1.696
1.701
1.711
1.696
1.676
1.681
1.696
1.691
1.672
1.667
1.676
1.676
1.657
1.662
1.676
1.676
1.667
1.657
1.662
1.662
1.637
1.628
1.637
1.647
1.642
1.642
1.667
1.706
1.716
1.706
1.706
1.706
1.701
1.696
1.696
1.711
1.716
1.696
1.706
1.725
1.73
1.716
1.696
1.696
1.696
1.676
1.672
1.691
1.706
1.706
1.701
1.716
1.73
1.716
1.701
1.701
1.706
1.696
1.681
1.676
1.691
1.696
1.681
1.686
1.696
1.686
1.667
1.647
1.642
1.637
1.623
1.618
1.632
1.652
1.657
1.657
1.676
1.696
1.691
1.676
1.686
1.701
1.686
1.662
1.647
1.652
1.647
1.628
1.632
1.657
1.667
1.672
1.681
1.706
1.72
1.701
1.691
1.706
1.72
1.74
1.769
1.818
1.877
1.916
1.955
2.019
2.077
2.102
2.102
2.082
2.053
1.989
1.896
1.813
1.73
1.647
1.569
1.52
1.505
1.51
1.505
1.53
1.574
1.618
1.637
1.647
1.662
1.681
1.681
1.667
1.676
1.691
1.691
1.681
1.681
1.696
1.691
1.667
1.667
1.676
1.672
1.647
1.632
1.637
1.642
1.628
1.632
1.652
1.667
1.657
1.642
1.652
1.667
1.652
1.637
1.647
1.657
1.652
1.642
1.632
1.632
1.618
1.593
1.613
1.647
1.667
1.672
1.672
1.691
1.696
1.667
1.637
1.642
1.647
1.652
1.662
1.691
1.72
1.725
1.725
1.74
1.75
1.74
1.716
1.696
1.701
1.691
1.667
1.662
1.672
1.672
1.662
1.667
1.681
1.701
1.696
1.706
1.73
1.75
1.75
1.755
1.779
1.804
1.799
1.784
1.784
1.789
1.774
1.75
1.74
1.745
1.745
1.735
1.76
1.794
1.804
1.799
1.794
1.804
1.804
1.784
1.779
1.794
1.799
1.789
1.784
1.794
1.804
1.784
1.755
1.745
1.735
1.711
1.691
1.691
1.716
1.72
1.711
1.716
1.735
1.73
1.701
1.676
1.662
1.647
1.613
1.608
1.628
1.647
1.647
1.647
1.667
1.686
1.676
1.662
1.657
1.662
1.652
1.642
1.637
1.652
1.637
1.613
1.608
1.613
1.603
1.588
1.584
1.603
1.628
1.628
1.642
1.676
1.701
1.696
1.686
1.686
1.686
1.662
1.642
1.637
1.637
1.628
1.623
1.623
1.642
1.632
1.613
1.613
1.628
1.628
1.613
1.613
1.628
1.632
1.608
1.593
1.598
1.608
1.603
1.603
1.628
1.667
1.681
1.691
1.716
1.74
1.74
1.725
1.716
1.72
1.706
1.681
1.676
1.681
1.667
1.647
1.632
1.637
1.637
1.618
1.618
1.628
1.623
1.598
1.579
1.584
1.598
1.598
1.593
1.623
1.662
1.696
1.72
1.745
1.769
1.764
1.725
1.716
1.711
1.686
1.657
1.642
1.647
1.652
1.632
1.623
1.632
1.623
1.598
1.574
1.564
1.569
1.554
1.554
1.584
1.623
1.637
1.647
1.667
1.691
1.686
1.657
1.662
1.681
1.686
1.686
1.701
1.73
1.74
1.72
1.706
1.706
1.691
1.647
1.613
1.603
1.608
1.593
1.584
1.608
1.632
1.647
1.642
1.647
1.667
1.672
1.657
1.662
1.672
1.667
1.647
1.628
1.628
1.618
1.584
1.579
1.608
1.632
1.657
1.686
1.725
1.76
1.755
1.73
1.711
1.681
1.642
1.608
1.598
1.608
1.613
1.613
1.632
1.652
1.632
1.598
1.579
1.588
1.598
1.588
1.593
1.623
1.632
1.623
1.613
1.623
1.642
1.632
1.628
1.642
1.652
1.652
1.652
1.647
1.642
1.618
1.588
1.598
1.623
1.637
1.647
1.657
1.686
1.706
1.701
1.716
1.755
1.784
1.808
1.838
1.887
1.94
1.945
1.95
1.955
1.94
1.887
1.818
1.755
1.701
1.637
1.574
1.549
1.54
1.53
1.52
1.515
1.53
1.535
1.53
1.544
1.574
1.588
1.593
1.593
1.603
1.608
1.584
1.564
1.564
1.569
1.564
1.564
1.584
1.608
1.603
1.584
1.579
1.584
1.574
1.554
1.554
1.584
1.608
1.603
1.603
1.613
1.613
1.598
1.588
1.593
1.598
1.588
1.588
1.623
1.657
1.672
1.676
1.681
1.691
1.686
1.662
1.662
1.667
1.657
1.632
1.623
1.628
1.628
1.613
1.608
1.632
1.657
1.672
1.676
1.686
1.681
1.657
1.632
1.632
1.632
1.623
1.613
1.632
1.672
1.701
1.706
1.725
1.74
1.73
1.72
1.716
1.725
1.73
1.716
1.716
1.735
1.745
1.74
1.73
1.74
1.75
1.74
1.735
1.75
1.76
1.745
1.725
1.725
1.735
1.73
1.711
1.711
1.72
1.725
1.73
1.745
1.769
1.779
1.764
1.774
1.794
1.804
1.784
1.75
1.735
1.73
1.701
1.691
1.711
1.73
1.725
1.716
1.716
1.725
1.72
1.701
1.696
1.701
1.696
1.691
1.691
1.696
1.691
1.662
1.647
1.657
1.662
1.657
1.652
1.662
1.662
1.637
1.613
1.618
1.628
1.623
1.618
1.628
1.647
1.642
1.632
1.642
1.652
1.647
1.628
1.623
1.628
1.632
1.628
1.623
1.628
1.623
1.623
1.628
1.642
1.662
1.657
1.652
1.667
1.672
1.662
1.647
1.642
1.657
1.652
1.632
1.642
1.652
1.642
1.618
1.603
1.608
1.613
1.613
1.628
1.652
1.662
1.657
1.647
1.652
1.657
1.637
1.628
1.652
1.676
1.681
1.672
1.672
1.676
1.657
1.628
1.623
1.628
1.623
1.618
1.623
1.647
1.662
1.647
1.642
1.657
1.657
1.647
1.642
1.652
1.652
1.628
1.613
1.623
1.632
1.628
1.623
1.623
1.637
1.628
1.618
1.628
1.647
1.652
1.647
1.642
1.657
1.652
1.628
1.618
1.632
1.632
1.628
1.628
1.647
1.672
1.662
1.652
1.662
1.657
1.632
1.623
1.632
1.667
1.681
1.681
1.701
1.716
1.706
1.676
1.652
1.647
1.642
1.618
1.623
1.637
1.647
1.642
1.647
1.657
1.662
1.647
1.632
1.642
1.647
1.647
1.652
1.676
1.701
1.701
1.696
1.706
1.73
1.74
1.74
1.74
1.755
1.75
1.72
1.711
1.725
1.73
1.716
1.696
1.686
1.676
1.657
1.652
1.676
1.696
1.696
1.701
1.711
1.72
1.701
1.676
1.667
1.667
1.657
1.637
1.637
1.662
1.681
1.681
1.696
1.711
1.706
1.691
1.681
1.676
1.681
1.662
1.657
1.672
1.676
1.672
1.662
1.667
1.681
1.676
1.662
1.667
1.676
1.676
1.672
1.681
1.72
1.755
1.774
1.823
1.882
1.931
1.96
1.994
2.038
2.082
2.082
2.077
2.077
2.063
2.023
1.96
1.891
1.823
1.74
1.662
1.618
1.598
1.584
1.574
1.579
1.613
1.637
1.637
1.652
1.676
1.686
1.681
1.686
1.696
1.701
1.681
1.672
1.681
1.681
1.667
1.657
1.662
1.681
1.681
1.672
1.686
1.711
1.716
1.711
1.706
1.706
1.691
1.657
1.652
1.662
1.667
1.667
1.662
1.676
1.686
1.672
1.662
1.672
1.672
1.662
1.657
1.672
1.696
1.696
1.691
1.706
1.711
1.701
1.681
1.667
1.676
1.686
1.681
1.701
1.73
1.755
1.769
1.789
1.808
1.808
1.784
1.76
1.75
1.74
1.711
1.686
1.676
1.676
1.672
1.662
1.686
1.716
1.73
1.735
1.745
1.76
1.76
1.745
1.745
1.76
1.764
1.764
1.764
1.784
1.794
1.774
1.745
1.745
1.745
1.735
1.73
1.745
1.779
1.789
1.799
1.823
1.843
1.843
1.818
1.799
1.794
1.769
1.73
1.716
1.72
1.72
1.711
1.706
1.711
1.72
1.711
1.711
1.72
1.72
1.706
1.686
1.686
1.701
1.701
1.696
1.725
1.75
1.745
1.725
1.711
1.706
1.686
1.647
1.632
1.628
1.618
1.603
1.598
1.618
1.637
1.628
1.628
1.632
1.632
1.623
1.608
1.598
1.603
1.593
1.579
1.588
1.603
1.608
1.618
1.637
1.662
1.667
1.647
1.647
1.662
1.662
1.657
1.657
1.667
1.672
1.657
1.647
1.652
1.652
1.632
1.613
1.603
1.603
1.593
1.584
1.603
1.623
1.628
1.623
1.628
1.637
1.632
1.608
1.613
1.632
1.632
1.628
1.628
1.652
1.676
1.676
1.686
1.711
1.716
1.706
1.696
1.701
1.706
1.691
1.667
1.667
1.676
1.667
1.657
1.647
1.657
1.642
1.608
1.598
1.608
1.613
1.613
1.608
1.618
1.623
1.598
1.598
1.623
1.642
1.642
1.637
1.647
1.667
1.662
1.652
1.662
1.667
1.647
1.628
1.618
1.637
1.647
1.642
1.662
1.691
1.706
1.701
1.691
1.691
1.676
1.642
1.628
1.647
1.662
1.662
1.662
1.667
1.667
1.642
1.618
1.623
1.623
1.608
1.593
1.598
1.623
1.642
1.642
1.657
1.681
1.681
1.667
1.652
1.657
1.652
1.613
1.584
1.588
1.603
1.623
1.652
1.691
1.735
1.74
1.74
1.75
1.755
1.735
1.716
1.701
1.711
1.711
1.691
1.691
1.706
1.706
1.696
1.691
1.701
1.706
1.676
1.672
1.676
1.662
1.623
1.588
1.574
1.584
1.588
1.593
1.628
1.672
1.701
1.711
1.711
1.72
1.711
1.681
1.672
1.672
1.662
1.647
1.647
1.662
1.672
1.652
1.647
1.657
1.662
1.662
1.652
1.657
1.672
1.662
1.642
1.642
1.637
1.628
1.632
1.652
1.701
1.735
1.76
1.804
1.862
1.906
1.945
1.984
2.028
2.058
2.048
2.033
2.028
2.009
1.955
1.891
1.828
1.774
1.706
1.647
1.637
1.637
1.623
1.603
1.598
1.598
1.588
1.564
1.564
1.584
1.598
1.613
1.632
1.662
1.676
1.662
1.657
1.667
1.672
1.657
1.637
1.637
1.647
1.637
1.628
1.647
1.667
1.672
1.667
1.681
1.711
1.716
1.706
1.706
1.711
1.706
1.681
1.667
1.672
1.676
1.657
1.657
1.676
1.691
1.676
1.662
1.667
1.681
1.676
1.667
1.676
1.686
1.681
1.672
1.662
1.667
1.662
1.657
1.672
1.701
1.711
1.706
1.701
1.716
1.73
1.711
1.706
1.711
1.716
1.711
1.701
1.711
1.725
1.716
1.706
1.72
1.73
1.72
1.706
1.701
1.72
1.716
1.696
1.706
1.725
1.725
1.73
1.75
1.784
1.813
1.808
1.813
1.828
1.833
1.828
1.818
1.818
1.818
1.794
1.764
1.774
1.789
1.789
1.774
1.769
1.779
1.769
1.745
1.75
1.76
1.755
1.745
1.74
1.755
1.764
1.75
1.74
1.74
1.74
1.716
1.696
1.696
1.701
1.676
1.652
1.657
1.667
1.662
1.662
1.676
1.696
1.686
1.662
1.662
1.681
1.676
1.657
1.637
1.637
1.632
1.613
1.618
1.637
1.652
1.657
1.657
1.667
1.672
1.657
1.642
1.652
1.657
1.647
1.628
1.623
1.637
1.637
1.628
1.637
1.657
1.662
1.657
1.657
1.672
1.676
1.647
1.632
1.628
1.623
1.608
1.598
1.613
1.632
1.623
1.628
1.657
1.676
1.676
1.672
1.681
1.706
1.711
1.696
1.701
1.711
1.701
1.681
1.672
1.681
1.686
1.672
1.676
1.691
1.696
1.681
1.662
1.662
1.662
1.637
1.618
1.623
1.632
1.637
1.637
1.647
1.672
1.672
1.662
1.676
1.701
1.706
1.696
1.691
1.701
1.701
1.672
1.657
1.667
1.662
1.647
1.637
1.647
1.667
1.667
1.662
1.681
1.701
1.701
1.696
1.706
1.72
1.711
1.686
1.686
1.696
1.691
1.672
1.662
1.676
1.681
1.667
1.667
1.681
1.686
1.681
1.672
1.676
1.676
1.667
1.657
1.672
1.686
1.681
1.672
1.676
1.691
1.686
1.667
1.676
1.691
1.691
1.681
1.676
1.686
1.686
1.662
1.652
1.657
1.657
1.657
1.662
1.691
1.725
1.73
1.73
1.745
1.755
1.745
1.74
1.735
1.745
1.735
1.711
1.711
1.73
1.73
1.72
1.716
1.73
1.73
1.711
1.706
1.725
1.74
1.73
1.72
1.725
1.735
1.716
1.701
1.706
1.711
1.691
1.676
1.676
1.686
1.686
1.672
1.686
1.706
1.696
1.676
1.652
1.642
1.628
1.603
1.593
1.603
1.618
1.628
1.642
1.676
1.706
1.701
1.696
1.716
1.73
1.725
1.711
1.706
1.706
1.691
1.672
1.691
1.72
1.745
1.764
1.799
1.857
1.911
1.945
1.984
2.043
2.077
2.092
2.092
2.087
2.058
1.989
1.911
1.852
1.784
1.706
1.632
1.584
1.574
1.574
1.574
1.598
1.623
1.632
1.628
1.628
1.642
1.652
1.642
1.657
1.686
1.711
1.72
1.725
1.74
1.74
1.711
1.667
1.647
1.637
1.623
1.613
1.632
1.672
1.701
1.706
1.725
1.74
1.73
1.706
1.686
1.676
1.662
1.632
1.623
1.637
1.647
1.652
1.657
1.667
1.681
1.667
1.667
1.691
1.701
1.696
1.681
1.691
1.72
1.735
1.725
1.725
1.725
1.716
1.706
1.711
1.725
1.735
1.711
1.706
1.716
1.716
1.701
1.681
1.686
1.696
1.681
1.681
1.706
1.74
1.745
1.74
1.735
1.75
1.735
1.711
1.716
1.73
1.735
1.74
1.76
1.784
1.799
1.789
1.794
1.808
1.804
1.779
1.76
1.76
1.76
1.745
1.745
1.774
1.804
1.808
1.799
1.789
1.784
1.769
1.745
1.745
1.755
1.75
1.745
1.755
1.784
1.799
1.784
1.784
1.789
1.779
1.755
1.73
1.73
1.75
1.745
1.74
1.755
1.76
1.745
1.73
1.72
1.716
1.691
1.657
1.657
1.667
1.667
1.662
1.652
1.657
1.647
1.618
1.618
1.637
1.657
1.667
1.676
1.686
1.691
1.657
1.632
1.628
1.628
1.618
1.618
1.637
1.667
1.672
1.657
1.667
1.676
1.662
1.642
1.632
1.642
1.642
1.623
1.628
1.647
1.652
1.632
1.618
1.623
1.642
1.632
1.623
1.637
1.642
1.637
1.637
1.652
1.676
1.681
1.681
1.701
1.72
1.716
1.691
1.681
1.686
1.676
1.642
1.618
1.618
1.623
1.618
1.623
1.647
1.676
1.672
1.672
1.691
1.701
1.696
1.681
1.676
1.681
1.667
1.647
1.652
1.672
1.676
1.667
1.662
1.667
1.667
1.647
1.647
1.662
1.667
1.662
1.657
1.667
1.681
1.667
1.667
1.696
1.711
1.706
1.691
1.681
1.681
1.652
1.618
1.623
1.642
1.647
1.647
1.667
1.706
1.725
1.716
1.706
1.711
1.701
1.672
1.642
1.628
1.628
1.613
1.608
1.628
1.652
1.662
1.672
1.686
1.716
1.72
1.706
1.706
1.706
1.696
1.676
1.662
1.667
1.662
1.647
1.657
1.681
1.696
1.696
1.696
1.701
1.701
1.676
1.667
1.676
1.691
1.681
1.672
1.676
1.701
1.706
1.701
1.706
1.72
1.72
1.716
1.72
1.735
1.74
1.72
1.725
1.74
1.74
1.72
1.701
1.696
1.696
1.676
1.657
1.657
1.662
1.657
1.652
1.667
1.691
1.686
1.667
1.672
1.681
1.672
1.657
1.647
1.657
1.657
1.637
1.637
1.657
1.667
1.662
1.657
1.672
1.681
1.676
1.676
1.681
1.672
1.657
1.657
1.672
1.686
1.672
1.652
1.662
1.686
1.701
1.725
1.755
1.804
1.843
1.872
1.931
2.004
2.058
2.082
2.092
2.097
2.092
2.053
2.014
1.975
1.916
1.838
1.755
1.686
1.642
1.593
1.564
1.569
1.598
1.618
1.623
1.637
1.667
1.676
1.662
1.647
1.652
1.652
1.642
1.647
1.667
1.681
1.672
1.667
1.681
1.686
1.676
1.662
1.662
1.672
1.672
1.676
1.706
1.725
1.716
1.701
1.701
1.711
1.706
1.676
1.657
1.657
1.652
1.642
1.642
1.662
1.676
1.676
1.676
1.701
1.72
1.711
1.701
1.706
1.711
1.701
1.681
1.681
1.696
1.696
1.686
1.691
1.701
1.706
1.686
1.691
1.716
1.725
1.73
1.73
1.74
1.745
1.725
1.716
1.725
1.74
1.735
1.73
1.745
1.764
1.755
1.735
1.74
1.755
1.755
1.74
1.735
1.75
1.75
1.73
1.735
1.75
1.75
1.73
1.711
1.72
1.74
1.725
1.72
1.745
1.779
1.804
1.823
1.843
1.857
1.848
1.823
1.818
1.813
1.794
1.774
1.769
1.784
1.799
1.794
1.794
1.804
1.799
1.789
1.774
1.769
1.76
1.725
1.701
1.706
1.701
1.681
1.667
1.672
1.691
1.691
1.686
1.701
1.711
1.701
1.681
1.672
1.676
1.672
1.652
1.647
1.657
1.652
1.632
1.618
1.623
1.628
1.618
1.618
1.637
1.647
1.637
1.623
1.628
1.632
1.623
1.603
1.613
1.637
1.652
1.652
1.657
1.676
1.676
1.662
1.657
1.676
1.681
1.686
1.691
1.711
1.73
1.711
1.691
1.691
1.676
1.647
1.618
1.603
1.598
1.579
1.564
1.584
1.603
1.608
1.603
1.623
1.657
1.672
1.667
1.676
1.701
1.706
1.701
1.686
1.691
1.696
1.686
1.696
1.716
1.72
1.711
1.696
1.696
1.706
1.686
1.657
1.652
1.657
1.652
1.647
1.652
1.662
1.657
1.637
1.632
1.642
1.642
1.632
1.632
1.657
1.681
1.676
1.672
1.691
1.701
1.696
1.676
1.672
1.672
1.647
1.628
1.642
1.667
1.676
1.676
1.676
1.681
1.676
1.647
1.647
1.662
1.676
1.681
1.691
1.716
1.73
1.706
1.686
1.676
1.667
1.637
1.613
1.613
1.632
1.642
1.647
1.676
1.701
1.701
1.686
1.676
1.681
1.672
1.652
1.662
1.686
1.701
1.701
1.706
1.725
1.735
1.696
1.662
1.647
1.637
1.642
1.657
1.691
1.725
1.73
1.725
1.725
1.716
1.676
1.642
1.632
1.652
1.667
1.676
1.701
1.745
1.76
1.755
1.745
1.745
1.745
1.72
1.711
1.72
1.72
1.706
1.681
1.676
1.676
1.662
1.642
1.647
1.657
1.652
1.642
1.642
1.647
1.647
1.632
1.647
1.681
1.701
1.706
1.706
1.716
1.706
1.667
1.642
1.642
1.647
1.642
1.642
1.672
1.716
1.725
1.72
1.73
1.725
1.701
1.676
1.672
1.701
1.735
1.774
1.852
1.935
1.989
2.019
2.043
2.063
2.063
2.019
1.97
1.926
1.872
1.804
1.75
1.72
1.716
1.696
1.676
1.691
1.706
1.701
1.691
1.681
1.681
1.657
1.623
1.632
1.667
1.696
1.716
1.735
1.76
1.764
1.725
1.696
1.691
1.676
1.642
1.613
1.613
1.628
1.623
1.623
1.652
1.676
1.686
1.672
1.662
1.652
1.628
1.579
1.559
1.564
1.569
1.579
1.593
1.628
1.657
1.657
1.642
1.637
1.623
1.603
1.588
1.598
1.613
1.613
1.618
1.647
1.676
1.676
1.676
1.686
1.716
1.735
1.725
1.74
1.764
1.779
1.779
1.769
1.764
1.74
1.706
1.691
1.701
1.706
1.696
1.686
1.681
1.686
1.672
1.647
1.637
1.628
1.623
1.623
1.647
1.681
1.701
1.706
1.725
1.76
1.769
1.755
1.725
1.706
1.676
1.628
1.603
1.613
1.628
1.637
1.657
1.696
1.745
1.769
1.774
1.769
1.745
1.706
1.667
1.662
1.696
1.73
1.76
1.804
1.843
1.838
1.813
1.779
1.76
1.74
1.696
1.667
1.662
1.657
1.642
1.632
1.628
1.618
1.584
1.554
1.564
1.579
1.584
1.574
1.569
1.569
1.549
1.51
1.496
1.5
1.5
1.51
1.53
1.559
1.569
1.549
1.544
1.549
1.544
1.525
1.515
1.525
1.549
1.559
1.569
1.588
1.608
1.603
1.593
1.593
1.603
1.593
1.564
1.549
1.535
1.51
1.476
1.461
1.476
1.5
1.515
1.54
1.579
1.598
1.593
1.574
1.559
1.544
1.51
1.496
1.525
1.559
1.579
1.603
1.632
1.652
1.632
1.593
1.579
1.574
1.559
1.549
1.559
1.598
1.642
1.662
1.667
1.662
1.642
1.608
1.569
1.54
1.52
1.491
1.486
1.52
1.554
1.569
1.569
1.584
1.608
1.598
1.559
1.54
1.535
1.52
1.51
1.52
1.544
1.574
1.588
1.632
1.686
1.72
1.711
1.686
1.676
1.667
1.642
1.623
1.623
1.623
1.608
1.588
1.579
1.584
1.569
1.544
1.53
1.52
1.486
1.461
1.457
1.471
1.481
1.476
1.491
1.54
1.593
1.642
1.686
1.725
1.75
1.745
1.725
1.725
1.72
1.706
1.681
1.676
1.676
1.657
1.623
1.613
1.603
1.584
1.554
1.544
1.549
1.559
1.559
1.579
1.608
1.623
1.618
1.618
1.628
1.647
1.637
1.618
1.608
1.603
1.608
1.618
1.642
1.672
1.676
1.662
1.662
1.662
1.647
1.628
1.608
1.618
1.632
1.637
1.657
1.691
1.696
1.681
1.667
1.667
1.676
1.667
1.657
1.667
1.667
1.642
1.628
1.642
1.672
1.686
1.672
1.672
1.681
1.681
1.667
1.647
1.632
1.613
1.584
1.588
1.618
1.637
1.642
1.642
1.647
1.647
1.623
1.603
1.618
1.642
1.657
1.681
1.711
1.735
1.72
1.676
1.642
1.613
1.579
1.554
1.564
1.637
1.74
1.848
1.97
2.087
2.17
2.199
2.19
2.16
2.107
2.023
1.94
1.887
1.828
1.75
1.672
1.628
1.613
1.588
1.549
1.554
1.588
1.623
1.652
1.662
1.667
1.647
1.598
1.564
1.554
1.559
1.584
1.618
1.662
1.706
1.725
1.73
1.74
1.725
1.681
1.628
1.593
1.584
1.569
1.559
1.574
1.603
1.613
1.623
1.637
1.657
1.667
1.652
1.647
1.657
1.662
1.662
1.667
1.681
1.706
1.706
1.711
1.72
1.716
1.686
1.667
1.657
1.676
1.681
1.681
1.706
1.745
1.769
1.774
1.779
1.784
1.779
1.75
1.745
1.774
1.794
1.794
1.784
1.779
1.764
1.72
1.676
1.652
1.637
1.623
1.623
1.637
1.652
1.647
1.637
1.657
1.681
1.691
1.681
1.681
1.711
1.74
1.74
1.755
1.784
1.813
1.823
1.828
1.843
1.852
1.818
1.769
1.74
1.716
1.686
1.672
1.681
1.73
1.784
1.828
1.872
1.911
1.916
1.891
1.852
1.818
1.779
1.74
1.725
1.735
1.745
1.74
1.735
1.73
1.711
1.662
1.623
1.618
1.632
1.652
1.662
1.662
1.667
1.652
1.618
1.593
1.574
1.559
1.564
1.588
1.637
1.686
1.711
1.74
1.76
1.75
1.72
1.691
1.672
1.662
1.632
1.608
1.618
1.628
1.632
1.632
1.632
1.642
1.637
1.623
1.623
1.613
1.574
1.54
1.535
1.559
1.584
1.593
1.628
1.681
1.711
1.696
1.657
1.647
1.657
1.657
1.657
1.676
1.696
1.711
1.72
1.716
1.701
1.667
1.628
1.623
1.642
1.662
1.681
1.696
1.711
1.701
1.667
1.642
1.632
1.603
1.574
1.564
1.593
1.642
1.672
1.691
1.711
1.72
1.701
1.672
1.652
1.662
1.652
1.642
1.657
1.686
1.691
1.681
1.672
1.672
1.672
1.657
1.652
1.667
1.676
1.672
1.662
1.652
1.623
1.574
1.554
1.579
1.632
1.696
1.75
1.789
1.808
1.789
1.745
1.716
1.681
1.637
1.608
1.608
1.642
1.676
1.691
1.711
1.73
1.725
1.706
1.681
1.667
1.662
1.637
1.632
1.652
1.667
1.676
1.676
1.681
1.696
1.696
1.681
1.681
1.696
1.696
1.681
1.652
1.623
1.603
1.584
1.613
1.667
1.716
1.75
1.784
1.823
1.843
1.808
1.75
1.696
1.647
1.608
1.598
1.623
1.672
1.716
1.75
1.794
1.823
1.813
1.769
1.711
1.676
1.642
1.618
1.618
1.637
1.647
1.647
1.657
1.676
1.681
1.652
1.628
1.642
1.676
1.701
1.725
1.76
1.794
1.804
1.784
1.774
1.755
1.725
1.696
1.681
1.676
1.681
1.667
1.662
1.657
1.637
1.608
1.579
1.579
1.593
1.603
1.623
1.657
1.686
1.686
1.672
1.652
1.662
1.701
1.774
1.896
2.028
2.136
2.214
2.248
2.243
2.17
2.038
1.896
1.784
1.706
1.667
1.662
1.691
1.725
1.735
1.735
1.73
1.706
1.672
1.647
1.642
1.662
1.681
1.691
1.706
1.72
1.706
1.681
1.662
1.662
1.662
1.642
1.637
1.637
1.623
1.584
1.554
1.554
1.584
1.603
1.628
1.676
1.706
1.706
1.691
1.676
1.662
1.637
1.613
1.632
1.681
1.72
1.76
1.794
1.808
1.789
1.73
1.681
1.662
1.657
1.667
1.686
1.725
1.76
1.74
1.701
1.672
1.642
1.603
1.584
1.603
1.652
1.696
1.73
1.774
1.799
1.784
1.74
1.701
1.681
1.686
1.691
1.725
1.774
1.813
1.828
1.828
1.823
1.808
1.769
1.75
1.755
1.76
1.745
1.711
1.667
1.637
1.618
1.623
1.686
1.76
1.823
1.862
1.896
1.916
1.891
1.818
1.755
1.716
1.706
1.725
1.769
1.848
1.921
1.945
1.95
1.94
1.906
1.852
1.808
1.789
1.799
1.799
1.799
1.818
1.833
1.818
1.779
1.73
1.696
1.676
1.662
1.676
1.706
1.706
1.676
1.647
1.652
1.676
1.667
1.652
1.657
1.662
1.667
1.691
1.725
1.75
1.735
1.706
1.711
1.73
1.745
1.75
1.755
1.764
1.76
1.72
1.701
1.696
1.686
1.676
1.672
1.681
1.691
1.667
1.642
1.628
1.623
1.613
1.603
1.608
1.608
1.579
1.535
1.51
1.515
1.53
1.564
1.618
1.691
1.755
1.794
1.838
1.862
1.843
1.784
1.716
1.667
1.647
1.632
1.647
1.696
1.735
1.745
1.745
1.735
1.72
1.681
1.642
1.642
1.662
1.672
1.686
1.711
1.74
1.755
1.745
1.745
1.735
1.706
1.657
1.628
1.623
1.632
1.632
1.652
1.696
1.725
1.735
1.74
1.75
1.764
1.755
1.72
1.701
1.676
1.637
1.593
1.559
1.554
1.564
1.584
1.618
1.676
1.72
1.75
1.75
1.74
1.716
1.672
1.652
1.672
1.701
1.725
1.75
1.779
1.804
1.779
1.74
1.716
1.701
1.686
1.681
1.686
1.711
1.716
1.691
1.667
1.642
1.618
1.598
1.603
1.642
1.696
1.725
1.76
1.794
1.794
1.755
1.706
1.672
1.667
1.662
1.667
1.711
1.764
1.808
1.838
1.852
1.862
1.843
1.799
1.774
1.769
1.764
1.75
1.74
1.725
1.706
1.672
1.652
1.672
1.696
1.716
1.745
1.774
1.789
1.75
1.686
1.647
1.628
1.608
1.598
1.618
1.662
1.701
1.72
1.75
1.774
1.764
1.73
1.691
1.667
1.657
1.647
1.657
1.696
1.73
1.74
1.745
1.75
1.755
1.735
1.711
1.711
1.72
1.711
1.696
1.686
1.691
1.691
1.672
1.676
1.691
1.706
1.716
1.735
1.774
1.818
1.838
1.877
1.935
1.994
2.043
2.082
2.121
2.155
2.151
2.107
2.048
1.97
1.872
1.779
1.711
1.681
1.662
1.647
1.657
1.681
1.696
1.701
1.696
1.696
1.686
1.657
1.632
1.637
1.637
1.623
1.603
1.598
1.608
1.608
1.623
1.662
1.706
1.735
1.755
1.764
1.784
1.784
1.75
1.72
1.691
1.667
1.647
1.652
1.676
1.711
1.72
1.73
1.755
1.76
1.75
1.73
1.72
1.72
1.701
1.672
1.662
1.657
1.652
1.647
1.642
1.657
1.662
1.667
1.701
1.755
1.794
1.808
1.804
1.794
1.774
1.74
1.725
1.725
1.725
1.72
1.725
1.75
1.779
1.784
1.774
1.779
1.774
1.76
1.735
1.711
1.701
1.696
1.691
1.716
1.76
1.794
1.813
1.828
1.848
1.843
1.799
1.745
1.701
1.662
1.623
1.618
1.652
1.725
1.779
1.823
1.862
1.877
1.852
1.808
1.769
1.764
1.774
1.779
1.823
1.882
1.926
1.95
1.96
1.955
1.916
1.848
1.784
1.76
1.745
1.73
1.725
1.74
1.76
1.76
1.745
1.755
1.769
1.764
1.75
1.735
1.725
1.701
1.662
1.657
1.672
1.667
1.657
1.647
1.662
1.681
1.676
1.676
1.686
1.691
1.686
1.676
1.672
1.676
1.662
1.637
1.632
1.632
1.623
1.613
1.618
1.647
1.667
1.662
1.667
1.672
1.672
1.681
1.691
1.711
1.725
1.711
1.706
1.72
1.735
1.72
1.701
1.691
1.696
1.686
1.672
1.686
1.696
1.681
1.657
1.642
1.647
1.652
1.628
1.613
1.603
1.598
1.603
1.618
1.637
1.662
1.672
1.696
1.74
1.779
1.789
1.784
1.779
1.779
1.755
1.72
1.711
1.711
1.701
1.696
1.691
1.701
1.701
1.686
1.691
1.716
1.73
1.73
1.725
1.73
1.74
1.72
1.706
1.691
1.652
1.593
1.549
1.54
1.564
1.579
1.603
1.652
1.711
1.75
1.764
1.755
1.745
1.72
1.672
1.647
1.642
1.637
1.632
1.628
1.647
1.662
1.657
1.647
1.657
1.676
1.696
1.72
1.75
1.774
1.769
1.755
1.76
1.764
1.75
1.73
1.706
1.686
1.662
1.642
1.652
1.686
1.711
1.716
1.725
1.745
1.76
1.75
1.725
1.711
1.686
1.662
1.642
1.652
1.676
1.686
1.701
1.73
1.755
1.764
1.764
1.774
1.799
1.804
1.784
1.769
1.755
1.72
1.672
1.647
1.652
1.667
1.672
1.686
1.725
1.764
1.774
1.774
1.764
1.745
1.691
1.628
1.588
1.574
1.564
1.569
1.588
1.628
1.657
1.667
1.691
1.72
1.73
1.725
1.711
1.711
1.711
1.696
1.691
1.716
1.73
1.735
1.73
1.735
1.75
1.745
1.735
1.74
1.745
1.74
1.735
1.755
1.799
1.848
1.901
1.989
2.092
2.165
2.19
2.18
2.146
2.092
1.979
1.857
1.745
1.642
1.574
1.549
1.574
1.623
1.652
1.676
1.725
1.764
1.764
1.735
1.701
1.681
1.662
1.642
1.657
1.691
1.716
1.725
1.725
1.725
1.711
1.667
1.642
1.637
1.642
1.632
1.628
1.632
1.652
1.657
1.657
1.676
1.696
1.706
1.706
1.706
1.706
1.686
1.662
1.657
1.672
1.672
1.676
1.701
1.75
1.789
1.789
1.789
1.794
1.789
1.769
1.75
1.745
1.74
1.716
1.696
1.701
1.716
1.711
1.711
1.72
1.745
1.755
1.745
1.745
1.755
1.75
1.745
1.735
1.745
1.755
1.735
1.711
1.701
1.701
1.686
1.681
1.691
1.706
1.701
1.701
1.716
1.73
1.725
1.711
1.711
1.73
1.735
1.725
1.735
1.76
1.779
1.804
1.833
1.872
1.901
1.901
1.896
1.901
1.887
1.857
1.828
1.808
1.799
1.784
1.779
1.804
1.828
1.838
1.833
1.823
1.818
1.808
1.784
1.779
1.779
1.764
1.74
1.72
1.706
1.686
1.642
1.608
1.588
1.584
1.588
1.593
1.618
1.642
1.637
1.637
1.652
1.681
1.691
1.691
1.696
1.701
1.696
1.681
1.681
1.681
1.662
1.632
1.603
1.613
1.642
1.662
1.691
1.735
1.764
1.774
1.769
1.764
1.755
1.711
1.667
1.637
1.618
1.593
1.574
1.574
1.588
1.603
1.603
1.632
1.667
1.681
1.686
1.696
1.711
1.706
1.667
1.628
1.598
1.569
1.535
1.51
1.52
1.544
1.569
1.608
1.672
1.73
1.774
1.789
1.779
1.755
1.706
1.637
1.608
1.598
1.584
1.584
1.603
1.657
1.711
1.735
1.755
1.769
1.764
1.73
1.681
1.657
1.652
1.637
1.632
1.647
1.672
1.686
1.686
1.676
1.652
1.613
1.569
1.549
1.549
1.549
1.564
1.588
1.628
1.657
1.657
1.662
1.672
1.667
1.652
1.652
1.672
1.711
1.73
1.74
1.76
1.764
1.75
1.725
1.706
1.691
1.667
1.637
1.642
1.657
1.662
1.657
1.657
1.662
1.662
1.628
1.588
1.559
1.53
1.52
1.53
1.559
1.598
1.623
1.657
1.716
1.76
1.769
1.76
1.735
1.716
1.676
1.637
1.632
1.662
1.686
1.711
1.735
1.769
1.799
1.794
1.789
1.794
1.774
1.74
1.701
1.681
1.676
1.667
1.662
1.672
1.691
1.686
1.686
1.691
1.706
1.696
1.667
1.642
1.642
1.632
1.628
1.628
1.637
1.647
1.637
1.637
1.652
1.657
1.652
1.642
1.652
1.672
1.667
1.662
1.672
1.686
1.676
1.662
1.657
1.667
1.667
1.652
1.657
1.681
1.686
1.676
1.667
1.672
1.667
1.637
1.623
1.618
1.608
1.593
1.593
1.623
1.681
1.73
1.789
1.872
1.955
2.019
2.072
2.111
2.151
2.155
2.121
2.087
2.048
1.989
1.916
1.838
1.774
1.716
1.647
1.603
1.584
1.574
1.564
1.564
1.588
1.623
1.632
1.637
1.662
1.691
1.691
1.686
1.686
1.696
1.696
1.681
1.696
1.72
1.735
1.74
1.745
1.76
1.76
1.735
1.716
1.711
1.696
1.676
1.662
1.667
1.686
1.691
1.696
1.711
1.716
1.701
1.676
1.662
1.662
1.647
1.623
1.618
1.642
1.667
1.691
1.716
1.755
1.784
1.789
1.794
1.808
1.808
1.794
1.784
1.789
1.794
1.779
1.764
1.769
1.774
1.769
1.755
1.75
1.755
1.755
1.745
1.76
1.774
1.774
1.764
1.76
1.76
1.75
1.725
1.725
1.75
1.769
1.779
1.794
1.808
1.823
1.818
1.813
1.828
1.833
1.833
1.828
1.838
1.862
1.867
1.852
1.857
1.872
1.877
1.872
1.872
1.887
1.896
1.882
1.872
1.872
1.867
1.848
1.838
1.848
1.867
1.872
1.882
1.911
1.931
1.931
1.901
1.872
1.843
1.808
1.769
1.769
1.784
1.794
1.794
1.794
1.794
1.779
1.745
1.735
1.74
1.745
1.745
1.75
1.774
1.804
1.799
1.779
1.76
1.735
1.696
1.667
1.657
1.667
1.672
1.662
1.667
1.681
1.672
1.652
1.632
1.628
1.632
1.628
1.632
1.657
1.672
1.681
1.681
1.686
1.686
1.657
1.628
1.628
1.628
1.628
1.632
1.642
1.667
1.672
1.667
1.676
1.681
1.667
1.647
1.642
1.667
1.696
1.701
1.716
1.74
1.74
1.72
1.696
1.681
1.676
1.647
1.628
1.632
1.647
1.652
1.657
1.662
1.676
1.662
1.642
1.632
1.632
1.618
1.603
1.598
1.613
1.623
1.613
1.628
1.657
1.667
1.657
1.647
1.657
1.676
1.672
1.662
1.681
1.701
1.711
1.716
1.725
1.725
1.711
1.681
1.681
1.691
1.691
1.686
1.686
1.696
1.696
1.681
1.681
1.696
1.691
1.681
1.672
1.676
1.676
1.632
1.598
1.593
1.608
1.603
1.603
1.618
1.652
1.676
1.672
1.672
1.667
1.647
1.623
1.598
1.593
1.598
1.588
1.613
1.647
1.672
1.676
1.681
1.686
1.691
1.647
1.598
1.579
1.569
1.554
1.544
1.54
1.554
1.564
1.579
1.623
1.667
1.686
1.691
1.701
1.72
1.735
1.725
1.716
1.716
1.701
1.676
1.657
1.657
1.667
1.662
1.662
1.681
1.696
1.681
1.652
1.623
1.618
1.613
1.603
1.618
1.642
1.652
1.652
1.647
1.642
1.613
1.564
1.535
1.54
1.564
1.593
1.613
1.642
1.662
1.647
1.628
1.632
1.632
1.608
1.569
1.54
1.52
1.486
1.466
1.486
1.52
1.554
1.579
1.603
1.642
1.662
1.652
1.632
1.618
1.608
1.623
1.672
1.764
1.887
1.989
2.072
2.151
2.199
2.209
2.18
2.131
2.082
2.009
1.916
1.833
1.745
1.647
1.554
1.491
1.471
1.461
1.442
1.427
1.442
1.471
1.491
1.5
1.505
1.5
1.471
1.447
1.466
1.486
1.5
1.51
1.52
1.525
1.505
1.476
1.481
1.496
1.496
1.486
1.481
1.491
1.5
1.491
1.496
1.51
1.52
1.52
1.54
1.584
1.632
1.642
1.647
1.642
1.628
1.588
1.549
1.535
1.549
1.564
1.579
1.608
1.632
1.618
1.579
1.54
1.515
1.5
1.481
1.505
1.554
1.593
1.623
1.647
1.676
1.701
1.686
1.657
1.642
1.623
1.588
1.549
1.525
1.51
1.476
1.437
1.442
1.471
1.505
1.549
1.598
1.647
1.676
1.667
1.652
1.628
1.574
1.5
1.442
1.437
1.457
1.476
1.53
1.613
1.691
1.735
1.755
1.76
1.75
1.716
1.672
1.667
1.686
1.706
1.72
1.74
1.774
1.794
1.784
1.779
1.784
1.774
1.76
1.745
1.73
1.711
1.657
1.603
1.569
1.54
1.51
1.505
1.53
1.584
1.618
1.628
1.647
1.657
1.642
1.608
1.574
1.54
1.505
1.452
1.432
1.447
1.466
1.471
1.491
1.53
1.569
1.569
1.554
1.549
1.53
1.496
1.481
1.481
1.5
1.505
1.51
1.544
1.574
1.569
1.549
1.53
1.525
1.52
1.496
1.491
1.496
1.491
1.476
1.471
1.486
1.505
1.515
1.549
1.608
1.667
1.696
1.711
1.711
1.706
1.672
1.623
1.608
1.608
1.598
1.588
1.579
1.579
1.564
1.535
1.52
1.505
1.481
1.457
1.457
1.491
1.554
1.603
1.642
1.691
1.72
1.72
1.696
1.662
1.637
1.598
1.559
1.554
1.564
1.574
1.593
1.613
1.637
1.642
1.623
1.613
1.618
1.608
1.593
1.579
1.588
1.598
1.584
1.579
1.603
1.623
1.623
1.613
1.593
1.574
1.549
1.525
1.535
1.559
1.569
1.574
1.593
1.637
1.657
1.647
1.652
1.662
1.657
1.647
1.632
1.637
1.647
1.623
1.603
1.608
1.613
1.608
1.608
1.623
1.647
1.647
1.637
1.642
1.652
1.642
1.628
1.628
1.637
1.637
1.623
1.628
1.642
1.647
1.628
1.608
1.603
1.603
1.593
1.593
1.618
1.647
1.662
1.672
1.681
1.701
1.686
1.662
1.657
1.657
1.652
1.642
1.642
1.657
1.662
1.652
1.647
1.642
1.613
1.569
1.544
1.554
1.579
1.584
1.598
1.632
1.667
1.686
1.691
1.691
1.686
1.657
1.628
1.628
1.647
1.657
1.657
1.662
1.676
1.672
1.642
1.628
1.632
1.628
1.618
1.613
1.623
1.632
1.613
1.593
1.598
1.598
1.588
1.569
1.564
1.574
1.569
1.569
1.593
1.618
1.628
1.632
1.642
1.662
1.667
1.662
1.686
1.735
1.779
1.823
1.867
1.921
1.975
1.984
1.975
1.955
1.911
1.833
1.75
1.686
1.647
1.618
1.588
1.588
1.598
1.588
1.569
1.554
1.559
1.559
1.535
1.535
1.554
1.584
1.608
1.642
1.676
1.701
1.681
1.662
1.662
1.652
1.628
1.603
1.598
1.598
1.569
1.525
1.491
1.476
1.461
1.457
1.466
1.505
1.549
1.584
1.637
1.701
1.74
1.755
1.76
1.76
1.75
1.706
1.672
1.657
1.637
1.608
1.574
1.564
1.574
1.584
1.593
1.632
1.676
1.701
1.716
1.72
1.72
1.701
1.652
1.623
1.623
1.618
1.608
1.608
1.623
1.642
1.637
1.667
1.73
1.789
1.823
1.833
1.848
1.862
1.848
1.808
1.774
1.725
1.667
1.628
1.623
1.647
1.672
1.681
1.711
1.75
1.779
1.789
1.789
1.789
1.799
1.794
1.794
1.818
1.843
1.843
1.838
1.838
1.833
1.804
1.764
1.74
1.716
1.672
1.618
1.588
1.603
1.637
1.667
1.725
1.799
1.843
1.867
1.891
1.916
1.911
1.867
1.823
1.808
1.808
1.808
1.808
1.813
1.813
1.784
1.75
1.745
1.75
1.74
1.72
1.711
1.72
1.716
1.691
1.681
1.696
1.701
1.696
1.696
1.716
1.745
1.735
1.725
1.73
1.73
1.72
1.706
1.706
1.725
1.725
1.72
1.745
1.769
1.779
1.774
1.769
1.774
1.76
1.72
1.686
1.657
1.637
1.632
1.642
1.667
1.696
1.696
1.711
1.735
1.75
1.74
1.73
1.73
1.735
1.725
1.706
1.711
1.716
1.706
1.672
1.657
1.676
1.701
1.711
1.745
1.799
1.838
1.867
1.882
1.891
1.891
1.862
1.838
1.828
1.799
1.755
1.725
1.725
1.735
1.72
1.696
1.686
1.681
1.662
1.642
1.647
1.686
1.725
1.75
1.784
1.818
1.828
1.808
1.769
1.725
1.681
1.632
1.623
1.662
1.706
1.735
1.755
1.764
1.764
1.74
1.716
1.73
1.76
1.779
1.794
1.808
1.833
1.828
1.794
1.774
1.764
1.755
1.745
1.745
1.774
1.804
1.799
1.774
1.76
1.73
1.701
1.686
1.686
1.696
1.686
1.686
1.716
1.755
1.774
1.784
1.789
1.799
1.794
1.75
1.725
1.72
1.716
1.716
1.735
1.784
1.843
1.872
1.896
1.916
1.906
1.857
1.799
1.755
1.73
1.696
1.672
1.691
1.72
1.74
1.755
1.769
1.784
1.774
1.74
1.725
1.725
1.711
1.691
1.672
1.676
1.691
1.672
1.662
1.667
1.667
1.657
1.652
1.662
1.672
1.662
1.647
1.676
1.711
1.711
1.691
1.662
1.632
1.613
1.593
1.623
1.706
1.799
1.891
1.975
2.063
2.126
2.136
2.111
2.058
1.975
1.882
1.808
1.769
1.76
1.745
1.73
1.74
1.74
1.701
1.662
1.628
1.598
1.559
1.52
1.53
1.579
1.623
1.672
1.711
1.75
1.76
1.72
1.667
1.637
1.598
1.554
1.525
1.525
1.554
1.569
1.574
1.588
1.603
1.593
1.574
1.569
1.598
1.642
1.676
1.72
1.76
1.769
1.76
1.74
1.73
1.72
1.696
1.691
1.716
1.745
1.75
1.73
1.711
1.686
1.642
1.598
1.593
1.613
1.618
1.623
1.637
1.667
1.681
1.652
1.618
1.579
1.54
1.515
1.51
1.535
1.569
1.598
1.632
1.691
1.735
1.75
1.745
1.745
1.74
1.725
1.706
1.716
1.735
1.735
1.725
1.716
1.725
1.74
1.75
1.789
1.838
1.872
1.896
1.911
1.916
1.906
1.862
1.833
1.828
1.838
1.848
1.862
1.891
1.921
1.906
1.857
1.808
1.764
1.73
1.711
1.716
1.75
1.779
1.794
1.833
1.857
1.838
1.794
1.745
1.72
1.716
1.711
1.73
1.784
1.823
1.838
1.838
1.833
1.828
1.794
1.75
1.725
1.716
1.696
1.691
1.691
1.706
1.706
1.686
1.691
1.711
1.72
1.725
1.735
1.76
1.784
1.779
1.779
1.789
1.784
1.774
1.774
1.779
1.784
1.76
1.73
1.711
1.691
1.642
1.584
1.54
1.5
1.452
1.413
1.442
1.52
1.608
1.691
1.774
1.852
1.916
1.921
1.906
1.877
1.828
1.764
1.716
1.691
1.696
1.696
1.706
1.73
1.75
1.755
1.745
1.745
1.764
1.769
1.755
1.764
1.779
1.779
1.75
1.716
1.706
1.696
1.657
1.632
1.642
1.642
1.632
1.632
1.637
1.642
1.632
1.618
1.623
1.637
1.647
1.657
1.676
1.701
1.711
1.696
1.706
1.725
1.73
1.725
1.725
1.76
1.794
1.804
1.823
1.848
1.838
1.794
1.745
1.711
1.691
1.652
1.623
1.623
1.642
1.652
1.662
1.676
1.701
1.701
1.662
1.632
1.623
1.608
1.588
1.579
1.593
1.618
1.632
1.652
1.686
1.701
1.686
1.662
1.637
1.628
1.628
1.642
1.691
1.755
1.794
1.823
1.833
1.838
1.813
1.764
1.73
1.716
1.701
1.691
1.706
1.745
1.784
1.774
1.76
1.755
1.755
1.745
1.73
1.725
1.73
1.711
1.696
1.701
1.711
1.696
1.676
1.672
1.686
1.696
1.681
1.686
1.706
1.706
1.676
1.647
1.652
1.667
1.667
1.691
1.75
1.804
1.843
1.872
1.911
1.945
1.935
1.906
1.887
1.872
1.843
1.813
1.799
1.799
1.784
1.75
1.74
1.755
1.755
1.745
1.73
1.725
1.711
1.672
1.642
1.642
1.647
1.642
1.642
1.676
1.72
1.735
1.745
1.769
1.784
1.774
1.75
1.725
1.706
1.672
1.623
1.603
1.618
1.632
1.642
1.667
1.711
1.75
1.75
1.745
1.74
1.725
1.701
1.681
1.681
1.696
1.696
1.696
1.716
1.73
1.711
1.676
1.657
1.667
1.681
1.681
1.706
1.73
1.74
1.74
1.745
1.76
1.76
1.735
1.725
1.735
1.745
1.74
1.73
1.72
1.725
1.72
1.716
1.74
1.764
1.769
1.755
1.75
1.755
1.74
1.701
1.691
1.696
1.701
1.716
1.74
1.769
1.784
1.76
1.74
1.74
1.735
1.711
1.696
1.701
1.72
1.72
1.73
1.76
1.794
1.794
1.784
1.784
1.794
1.784
1.755
1.76
1.784
1.789
1.789
1.784
1.794
1.799
1.779
1.769
1.779
1.794
1.789
1.779
1.789
1.808
1.799
1.774
1.769
1.76
1.73
1.701
1.696
1.716
1.716
1.681
1.676
1.696
1.706
1.696
1.686
1.691
1.691
1.672
1.662
1.676
1.676
1.667
1.647
1.647
1.657
1.647
1.632
1.647
1.657
1.657
1.652
1.652
1.662
1.652
1.628
1.623
1.632
1.637
1.637
1.632
1.642
1.657
1.657
1.667
1.691
1.696
1.676
1.657
1.662
1.681
1.681
1.676
1.696
1.711
1.706
1.691
1.681
1.676
1.662
1.632
1.632
1.642
1.642
1.637
1.632
1.647
1.647
1.623
1.603
1.598
1.603
1.608
1.618
1.642
1.672
1.672
1.667
1.681
1.691
1.672
1.637
1.613
1.613
1.618
1.608
1.632
1.667
1.681
1.681
1.676
1.686
1.691
1.667
1.642
1.637
1.637
1.628
1.618
1.623
1.642
1.637
1.628
1.652
1.676
1.686
1.681
1.681
1.691
1.681
1.647
1.637
1.647
1.642
1.632
1.637
1.662
1.676
1.672
1.676
1.701
1.711
1.696
1.672
1.662
1.667
1.652
1.632
1.647
1.667
1.681
1.691
1.701
1.72
1.716
1.691
1.676
1.676
1.667
1.642
1.623
1.618
1.613
1.579
1.569
1.593
1.623
1.632
1.637
1.662
1.691
1.686
1.662
1.657
1.657
1.652
1.642
1.652
1.662
1.647
1.618
1.628
1.652
1.662
1.647
1.628
1.628
1.632
1.618
1.623
1.652
1.672
1.667
1.672
1.701
1.75
1.774
1.789
1.813
1.833
1.843
1.857
1.887
1.921
1.921
1.891
1.872
1.857
1.818
1.769
1.73
1.711
1.696
1.657
1.637
1.637
1.628
1.598
1.579
1.579
1.593
1.584
1.579
1.603
1.632
1.637
1.632
1.637
1.662
1.672
1.662
1.676
1.701
1.711
1.711
1.716
1.73
1.73
1.701
1.691
1.706
1.716
1.691
1.652
1.642
1.637
1.608
1.588
1.608
1.632
1.637
1.628
1.637
1.662
1.667
1.652
1.657
1.676
1.691
1.696
1.706
1.735
1.75
1.735
1.725
1.74
1.74
1.725
1.706
1.706
1.706
1.681
1.652
1.652
1.657
1.657
1.657
1.667
1.691
1.691
1.686
1.701
1.73
1.74
1.74
1.74
1.75
1.75
1.73
1.725
1.74
1.755
1.755
1.75
1.76
1.789
1.794
1.794
1.804
1.799
1.784
1.755
1.745
1.75
1.745
1.725
1.735
1.76
1.769
1.764
1.764
1.784
1.784
1.75
1.725
1.735
1.75
1.75
1.755
1.764
1.789
1.784
1.784
1.794
1.804
1.789
1.769
1.76
1.764
1.75
1.72
1.711
1.711
1.696
1.676
1.672
1.696
1.72
1.72
1.725
1.75
1.75
1.725
1.701
1.686
1.676
1.628
1.603
1.618
1.637
1.637
1.632
1.647
1.681
1.696
1.691
1.701
1.711
1.696
1.667
1.647
1.647
1.642
1.623
1.632
1.657
1.681
1.691
1.696
1.711
1.725
1.701
1.672
1.662
1.667
1.652
1.637
1.632
1.657
1.676
1.676
1.696
1.72
1.725
1.711
1.696
1.701
1.696
1.657
1.637
1.657
1.681
1.691
1.696
1.711
1.72
1.701
1.672
1.662
1.657
1.642
1.628
1.637
1.667
1.676
1.667
1.681
1.706
1.716
1.701
1.696
1.701
1.706
1.686
1.672
1.681
1.681
1.667
1.657
1.662
1.676
1.672
1.672
1.696
1.72
1.72
1.706
1.701
1.706
1.696
1.667
1.672
1.686
1.686
1.672
1.662
1.681
1.686
1.662
1.657
1.676
1.691
1.696
1.696
1.716
1.735
1.73
1.711
1.716
1.725
1.716
1.701
1.701
1.716
1.716
1.701
1.701
1.711
1.706
1.691
1.691
1.711
1.72
1.701
1.696
1.706
1.711
1.691
1.676
1.672
1.676
1.652
1.623
1.623
1.637
1.642
1.647
1.662
1.696
1.711
1.706
1.716
1.735
1.73
1.716
1.696
1.696
1.691
1.667
1.662
1.672
1.681
1.667
1.652
1.657
1.672
1.667
1.662
1.676
1.686
1.676
1.667
1.672
1.691
1.686
1.676
1.696
1.735
1.764
1.789
1.818
1.862
1.896
1.906
1.931
1.965
1.979
1.965
1.945
1.935
1.911
1.852
1.789
1.76
1.735
1.696
1.657
1.637
1.642
1.637
1.618
1.628
1.647
1.652
1.647
1.642
1.657
1.662
1.637
1.628
1.647
1.652
1.632
1.618
1.637
1.672
1.681
1.686
1.706
1.73
1.725
1.716
1.711
1.711
1.691
1.657
1.647
1.657
1.652
1.637
1.637
1.647
1.662
1.657
1.662
1.691
1.706
1.706
1.691
1.701
1.716
1.696
1.676
1.691
1.706
1.701
1.691
1.696
1.711
1.706
1.681
1.676
1.691
1.691
1.681
1.686
1.711
1.725
1.711
1.716
1.735
1.74
1.725
1.72
1.725
1.73
1.711
1.691
1.701
1.711
1.706
1.696
1.696
1.711
1.711
1.696
1.706
1.725
1.735
1.74
1.745
1.76
1.76
1.73
1.73
1.755
1.764
1.755
1.75
1.769
1.789
1.784
1.784
1.799
1.804
1.784
1.76
1.745
1.755
1.745
1.72
1.725
1.74
1.745
1.73
1.73
1.75
1.76
1.745
1.735
1.745
1.745
1.73
1.716
1.711
1.701
1.672
1.647
1.647
1.657
1.662
1.662
1.681
1.701
1.696
1.672
1.667
1.681
1.676
1.652
1.628
1.632
1.642
1.623
1.618
1.632
1.642
1.642
1.637
1.652
1.667
1.652
1.637
1.642
1.657
1.652
1.632
1.632
1.652
1.652
1.637
1.647
1.667
1.662
1.647
1.642
1.667
1.681
1.657
1.642
1.652
1.657
1.647
1.642
1.652
1.662
1.657
1.652
1.672
1.686
1.681
1.662
1.662
1.672
1.662
1.642
1.647
1.667
1.672
1.662
1.652
1.662
1.672
1.657
1.662
1.681
1.681
1.676
1.662
1.657
1.662
1.657
1.657
1.676
1.696
1.696
1.696
1.706
1.716
1.696
1.662
1.652
1.657
1.652
1.637
1.632
1.647
1.662
1.642
1.637
1.652
1.667
1.667
1.667
1.676
1.686
1.676
1.662
1.676
1.686
1.681
1.676
1.676
1.686
1.681
1.657
1.657
1.667
1.662
1.642
1.632
1.652
1.667
1.652
1.657
1.681
1.691
1.681
1.672
1.676
1.686
1.667
1.647
1.662
1.681
1.672
1.652
1.642
1.647
1.642
1.642
1.662
1.691
1.706
1.711
1.73
1.76
1.76
1.73
1.711
1.711
1.696
1.681
1.676
1.696
1.716
1.701
1.676
1.686
1.696
1.686
1.676
1.681
1.706
1.706
1.696
1.701
1.711
1.706
1.681
1.672
1.672
1.672
1.647
1.647
1.676
1.691
1.681
1.667
1.662
1.667
1.637
1.618
1.623
1.623
1.613
1.603
1.618
1.652
1.667
1.662
1.681
1.706
1.711
1.706
1.706
1.716
1.706
1.672
1.667
1.696
1.73
1.755
1.789
1.848
1.916
1.96
1.999
2.043
2.058
2.038
1.994
1.95
1.906
1.848
1.774
1.735
1.711
1.681
1.657
1.647
1.657
1.652
1.623
1.618
1.637
1.657
1.662
1.662
1.681
1.701
1.686
1.667
1.672
1.667
1.632
1.608
1.603
1.618
1.623
1.623
1.652
1.686
1.701
1.701
1.696
1.706
1.706
1.676
1.662
1.681
1.691
1.696
1.691
1.701
1.706
1.681
1.652
1.647
1.652
1.652
1.652
1.667
1.691
1.711
1.706
1.72
1.73
1.72
1.696
1.672
1.672
1.672
1.647
1.642
1.652
1.662
1.667
1.667
1.686
1.711
1.711
1.701
1.711
1.716
1.696
1.681
1.686
1.706
1.711
1.706
1.73
1.76
1.769
1.76
1.745
1.75
1.745
1.716
1.711
1.73
1.745
1.735
1.725
1.73
1.74
1.725
1.716
1.725
1.735
1.725
1.711
1.716
1.745
1.745
1.735
1.75
1.769
1.779
1.779
1.774
1.789
1.794
1.764
1.755
1.769
1.774
1.764
1.755
1.769
1.774
1.75
1.72
1.725
1.735
1.725
1.711
1.701
1.711
1.696
1.667
1.652
1.657
1.647
1.637
1.642
1.662
1.676
1.662
1.662
1.681
1.691
1.691
1.686
1.701
1.716
1.696
1.686
1.696
1.701
1.686
1.667
1.662
1.672
1.662
1.642
1.637
1.647
1.642
1.628
1.613
1.618
1.628
1.613
1.618
1.637
1.652
1.642
1.632
1.637
1.652
1.647
1.647
1.667
1.681
1.672
1.657
1.662
1.676
1.667
1.647
1.647
1.662
1.657
1.642
1.642
1.662
1.667
1.647
1.642
1.662
1.667
1.657
1.642
1.642
1.642
1.628
1.623
1.642
1.667
1.672
1.672
1.686
1.706
1.696
1.672
1.672
1.681
1.676
1.652
1.642
1.647
1.647
1.632
1.628
1.647
1.652
1.652
1.652
1.667
1.686
1.676
1.662
1.667
1.676
1.667
1.647
1.647
1.667
1.667
1.657
1.662
1.676
1.667
1.642
1.628
1.628
1.628
1.613
1.613
1.632
1.647
1.647
1.652
1.667
1.672
1.647
1.632
1.642
1.657
1.657
1.657
1.667
1.681
1.667
1.642
1.642
1.652
1.652
1.647
1.652
1.667
1.672
1.652
1.652
1.672
1.681
1.667
1.657
1.667
1.681
1.667
1.652
1.662
1.672
1.662
1.647
1.642
1.647
1.637
1.623
1.632
1.652
1.657
1.657
1.662
1.676
1.676
1.642
1.637
1.657
1.667
1.657
1.657
1.676
1.706
1.706
1.706
1.725
1.725
1.701
1.676
1.676
1.696
1.691
1.672
1.676
1.701
1.706
1.701
1.696
1.711
1.716
1.686
1.681
1.686
1.681
1.662
1.642
1.642
1.652
1.632
1.623
1.632
1.642
1.642
1.632
1.632
1.637
1.628
1.613
1.623
1.647
1.662
1.662
1.662
1.672
1.681
1.662
1.662
1.676
1.676
1.657
1.642
1.647
1.667
1.652
1.637
1.647
1.662
1.667
1.681
1.72
1.769
1.804
1.823
1.862
1.906
1.94
1.96
1.984
2.014
2.028
1.994
1.97
1.94
1.896
1.833
1.76
1.701
1.652
1.598
1.569
1.579
1.588
1.584
1.584
1.603
1.642
1.647
1.637
1.652
1.676
1.681
1.667
1.667
1.676
1.672
1.647
1.632
1.642
1.652
1.647
1.642
1.657
1.676
1.667
1.652
1.667
1.681
1.672
1.657
1.657
1.667
1.657
1.642
1.652
1.681
1.681
1.672
1.672
1.691
1.696
1.672
1.657
1.662
1.662
1.652
1.647
1.667
1.691
1.686
1.686
1.701
1.706
1.691
1.672
1.667
1.676
1.672
1.657
1.681
1.711
1.725
1.72
1.716
1.72
1.72
1.696
1.681
1.696
1.701
1.696
1.691
1.701
1.72
1.706
1.691
1.701
1.72
1.725
1.725
1.735
1.755
1.755
1.735
1.75
1.769
1.774
1.76
1.745
1.74
1.74
1.72
1.725
1.745
1.745
1.73
1.72
1.735
1.76
1.76
1.76
1.774
1.784
1.774
1.76
1.76
1.774
1.76
1.735
1.735
1.74
1.74
1.73
1.73
1.745
1.745
1.716
1.706
1.716
1.711
1.691
1.667
1.657
1.662
1.647
1.637
1.657
1.676
1.672
1.662
1.672
1.686
1.681
1.662
1.657
1.662
1.647
1.642
1.637
1.647
1.647
1.628
1.623
1.632
1.628
1.608
1.588
1.603
1.623
1.613
1.613
1.642
1.672
1.676
1.667
1.662
1.662
1.647
1.623
1.628
1.647
1.652
1.652
1.657
1.672
1.672
1.637
1.618
1.623
1.623
1.623
1.623
1.647
1.672
1.667
1.672
1.696
1.706
1.691
1.662
1.647
1.647
1.628
1.598
1.598
1.618
1.628
1.632
1.652
1.691
1.716
1.706
1.701
1.711
1.701
1.681
1.657
1.652
1.657
1.632
1.618
1.637
1.657
1.657
1.647
1.652
1.672
1.667
1.652
1.662
1.676
1.662
1.642
1.642
1.662
1.662
1.637
1.628
1.642
1.647
1.632
1.623
1.632
1.652
1.642
1.642
1.667
1.691
1.686
1.667
1.667
1.672
1.662
1.642
1.652
1.676
1.676
1.676
1.681
1.696
1.691
1.662
1.642
1.647
1.647
1.637
1.637
1.657
1.672
1.662
1.657
1.676
1.686
1.672
1.652
1.642
1.652
1.647
1.637
1.647
1.662
1.672
1.667
1.676
1.691
1.696
1.672
1.667
1.681
1.681
1.662
1.647
1.657
1.667
1.652
1.652
1.672
1.691
1.686
1.672
1.681
1.696
1.686
1.662
1.667
1.686
1.691
1.681
1.672
1.672
1.662
1.628
1.628
1.647
1.662
1.662
1.667
1.686
1.701
1.691
1.681
1.681
1.676
1.662
1.652
1.667
1.696
1.706
1.706
1.725
1.745
1.74
1.725
1.716
1.725
1.725
1.696
1.681
1.691
1.686
1.672
1.652
1.657
1.667
1.652
1.647
1.672
1.696
1.696
1.681
1.681
1.691
1.676
1.652
1.647
1.652
1.647
1.637
1.628
1.647
1.662
1.642
1.652
1.672
1.672
1.662
1.662
1.676
1.686
1.667
1.657
1.667
1.681
1.676
1.667
1.667
1.676
1.676
1.672
1.691
1.72
1.745
1.769
1.813
1.862
1.901
1.921
1.95
1.994
2.019
2.014
1.989
1.965
1.926
1.862
1.808
1.774
1.745
1.706
1.672
1.662
1.667
1.647
1.623
1.618
1.628
1.628
1.618
1.628
1.662
1.676
1.662
1.657
1.672
1.672
1.657
1.647
1.662
1.672
1.657
1.647
1.662
1.667
1.652
1.642
1.642
1.662
1.657
1.642
1.657
1.672
1.672
1.667
1.667
1.681
1.686
1.667
1.667
1.686
1.691
1.676
1.662
1.667
1.676
1.662
1.657
1.676
1.691
1.686
1.672
1.676
1.691
1.681
1.672
1.686
1.701
1.696
1.681
1.681
1.696
1.701
1.676
1.667
1.676
1.681
1.681
1.681
1.696
1.701
1.686
1.681
1.706
1.725
1.716
1.701
1.706
1.72
1.711
1.696
1.711
1.725
1.73
1.735
1.75
1.779
1.789
1.769
1.769
1.779
1.779
1.764
1.755
1.764
1.769
1.745
1.735
1.75
1.764
1.76
1.745
1.75
1.764
1.755
1.735
1.74
1.75
1.75
1.74
1.74
1.745
1.745
1.72
1.725
1.745
1.745
1.73
1.72
1.735
1.75
1.73
1.716
1.716
1.711
1.691
1.667
1.667
1.681
1.667
1.647
1.662
1.681
1.691
1.686
1.681
1.691
1.681
1.657
1.642
1.647
1.637
1.618
1.603
1.603
1.608
1.593
1.584
1.598
1.613
1.618
1.613
1.628
1.652
1.642
1.632
1.647
1.672
1.667
1.652
1.647
1.657
1.662
1.652
1.652
1.667
1.662
1.647
1.637
1.642
1.642
1.618
1.608
1.628
1.637
1.637
1.632
1.647
1.676
1.672
1.652
1.657
1.667
1.662
1.647
1.647
1.662
1.657
1.632
1.623
1.642
1.647
1.637
1.623
1.637
1.657
1.642
1.637
1.647
1.657
1.652
1.642
1.652
1.662
1.652
1.632
1.642
1.657
1.652
1.642
1.637
1.657
1.657
1.642
1.652
1.686
1.701
1.691
1.681
1.676
1.681
1.657
1.647
1.652
1.657
1.647
1.637
1.642
1.662
1.652
1.637
1.637
1.647
1.642
1.637
1.642
1.662
1.667
1.652
1.657
1.672
1.667
1.647
1.637
1.647
1.662
1.642
1.647
1.672
1.696
1.696
1.681
1.686
1.686
1.662
1.628
1.632
1.652
1.657
1.662
1.672
1.696
1.706
1.686
1.681
1.686
1.676
1.642
1.623
1.628
1.642
1.637
1.637
1.667
1.691
1.696
1.691
1.696
1.706
1.691
1.672
1.667
1.672
1.662
1.642
1.642
1.662
1.667
1.642
1.637
1.657
1.662
1.662
1.667
1.686
1.706
1.691
1.681
1.696
1.701
1.691
1.667
1.657
1.662
1.647
1.637
1.647
1.672
1.672
1.672
1.676
1.696
1.701
1.676
1.667
1.681
1.686
1.672
1.662
1.672
1.691
1.672
1.662
1.672
1.686
1.681
1.676
1.686
1.706
1.696
1.686
1.691
1.711
1.716
1.716
1.72
1.74
1.745
1.73
1.73
1.745
1.735
1.716
1.701
1.701
1.696
1.672
1.662
1.676
1.691
1.676
1.662
1.667
1.681
1.667
1.657
1.672
1.696
1.701
1.691
1.681
1.696
1.696
1.681
1.672
1.681
1.667
1.647
1.642
1.662
1.672
1.652
1.652
1.681
1.701
1.701
1.701
1.706
1.716
1.681
1.642
1.637
1.652
1.657
1.657
1.676
1.72
1.764
1.784
1.823
1.872
1.911
1.94
1.975
2.019
2.048
2.038
2.023
2.019
1.989
1.926
1.857
1.799
1.76
1.706
1.657
1.642
1.642
1.628
1.618
1.618
1.637
1.652
1.647
1.662
1.686
1.696
1.686
1.676
1.681
1.681
1.652
1.637
1.647
1.647
1.628
1.618
1.632
1.662
1.672
1.672
1.696
1.72
1.72
1.701
1.686
1.696
1.691
1.667
1.672
1.696
1.711
1.711
1.716
1.725
1.72
1.686
1.662
1.667
1.672
1.667
1.667
1.681
1.701
1.691
1.676
1.691
1.706
1.701
1.686
1.686
1.706
1.711
1.696
1.691
1.701
1.701
1.696
1.691
1.706
1.716
1.701
1.701
1.725
1.745
1.74
1.73
1.73
1.745
1.735
1.72
1.73
1.745
1.74
1.725
1.725
1.74
1.74
1.716
1.716
1.735
1.745
1.745
1.75
1.769
1.779
1.769
1.769
1.784
1.794
1.784
1.774
1.774
1.774
1.76
1.735
1.75
1.774
1.774
1.769
1.769
1.784
1.784
1.769
1.774
1.789
1.779
1.76
1.745
1.755
1.769
1.75
1.735
1.74
1.74
1.725
1.711
1.711
1.725
1.706
1.681
1.686
1.706
1.701
1.681
1.667
1.672
1.672
1.652
1.647
1.662
1.662
1.652
1.642
1.652
1.657
1.637
1.623
1.632
1.642
1.637
1.628
1.637
1.657
1.647
1.632
1.637
1.647
1.642
1.628
1.632
1.662
1.676
1.667
1.672
1.681
1.676
1.662
1.647
1.647
1.647
1.618
1.598
1.613
1.632
1.632
1.632
1.637
1.657
1.657
1.647
1.662
1.676
1.667
1.652
1.652
1.667
1.667
1.647
1.647
1.667
1.667
1.662
1.652
1.657
1.662
1.642
1.642
1.657
1.672
1.667
1.662
1.672
1.691
1.681
1.667
1.676
1.686
1.681
1.672
1.676
1.691
1.686
1.657
1.642
1.647
1.637
1.623
1.618
1.632
1.652
1.652
1.657
1.686
1.701
1.691
1.672
1.667
1.676
1.662
1.642
1.647
1.667
1.676
1.676
1.676
1.691
1.691
1.672
1.676
1.691
1.686
1.672
1.667
1.672
1.672
1.647
1.642
1.657
1.662
1.657
1.647
1.657
1.667
1.652
1.628
1.637
1.662
1.667
1.657
1.667
1.686
1.691
1.662
1.647
1.647
1.647
1.637
1.637
1.657
1.681
1.676
1.676
1.701
1.72
1.716
1.706
1.701
1.711
1.696
1.672
1.676
1.681
1.667
1.647
1.637
1.647
1.647
1.632
1.637
1.662
1.672
1.667
1.657
1.667
1.676
1.657
1.652
1.667
1.672
1.672
1.667
1.676
1.676
1.662
1.652
1.667
1.686
1.686
1.676
1.676
1.701
1.711
1.696
1.701
1.711
1.706
1.691
1.681
1.686
1.691
1.667
1.652
1.657
1.667
1.657
1.652
1.662
1.676
1.662
1.647
1.662
1.676
1.672
1.662
1.667
1.696
1.706
1.696
1.701
1.72
1.72
1.711
1.701
1.706
1.711
1.701
1.696
1.716
1.73
1.725
1.711
1.716
1.725
1.706
1.676
1.681
1.696
1.696
1.686
1.681
1.691
1.686
1.657
1.642
1.642
1.642
1.628
1.628
1.647
1.662
1.657
1.657
1.672
1.681
1.676
1.662
1.667
1.681
1.672
1.652
1.662
1.676
1.672
1.662
1.662
1.676
1.667
1.652
1.657
1.672
1.676
1.662
1.652
1.662
1.681
1.686
1.711
1.774
1.838
1.877
1.911
1.96
2.009
2.028
2.028
2.033
2.033
2.004
1.96
1.921
1.887
1.828
1.74
1.681
1.642
1.603
1.569
1.549
1.569
1.598
1.603
1.623
1.657
1.676
1.676
1.676
1.681
1.691
1.676
1.652
1.657
1.662
1.652
1.642
1.637
1.647
1.642
1.628
1.632
1.657
1.662
1.657
1.652
1.667
1.676
1.657
1.652
1.667
1.676
1.672
1.667
1.676
1.691
1.676
1.657
1.672
1.696
1.686
1.667
1.662
1.667
1.657
1.632
1.637
1.652
1.657
1.662
1.676
1.711
1.73
1.72
1.711
1.716
1.716
1.691
1.662
1.657
1.667
1.657
1.647
1.672
1.701
1.711
1.711
1.716
1.73
1.735
1.716
1.72
1.735
1.73
1.711
1.696
1.696
1.701
1.681
1.681
1.706
1.725
1.73
1.735
1.76
1.789
1.784
1.769
1.779
1.784
1.769
1.74
1.735
1.745
1.745
1.716
1.711
1.725
1.74
1.74
1.745
1.774
1.799
1.794
1.794
1.808
1.813
1.808
1.789
1.784
1.789
1.764
1.74
1.745
1.76
1.76
1.75
1.745
1.75
1.74
1.711
1.701
1.706
1.691
1.667
1.647
1.647
1.642
1.608
1.593
1.603
1.608
1.598
1.593
1.608
1.632
1.628
1.623
1.637
1.657
1.652
1.632
1.623
1.632
1.632
1.623
1.628
1.647
1.652
1.652
1.652
1.672
1.676
1.652
1.642
1.652
1.657
1.647
1.637
1.642
1.652
1.637
1.613
1.623
1.632
1.623
1.608
1.598
1.613
1.613
1.598
1.618
1.642
1.652
1.647
1.642
1.657
1.667
1.652
1.637
1.642
1.642
1.632
1.623
1.637
1.667
1.667
1.662
1.672
1.681
1.672
1.657
1.657
1.667
1.667
1.642
1.642
1.662
1.676
1.676
1.672
1.676
1.676
1.652
1.637
1.642
1.642
1.628
1.618
1.623
1.637
1.637
1.632
1.657
1.676
1.686
1.676
1.672
1.672
1.652
1.623
1.632
1.657
1.672
1.662
1.657
1.672
1.681
1.672
1.672
1.681
1.681
1.672
1.662
1.667
1.672
1.652
1.623
1.623
1.628
1.623
1.623
1.642
1.672
1.676
1.662
1.662
1.676
1.681
1.676
1.672
1.681
1.686
1.662
1.657
1.662
1.662
1.642
1.623
1.623
1.637
1.642
1.642
1.667
1.696
1.701
1.696
1.696
1.701
1.686
1.657
1.652
1.662
1.662
1.652
1.652
1.672
1.686
1.676
1.667
1.672
1.662
1.637
1.628
1.642
1.662
1.652
1.642
1.672
1.701
1.706
1.696
1.691
1.691
1.672
1.637
1.632
1.647
1.652
1.647
1.652
1.676
1.696
1.681
1.681
1.696
1.691
1.667
1.652
1.667
1.686
1.686
1.676
1.701
1.72
1.725
1.72
1.725
1.74
1.74
1.725
1.725
1.735
1.73
1.711
1.706
1.711
1.711
1.676
1.662
1.672
1.681
1.681
1.676
1.686
1.701
1.686
1.662
1.662
1.667
1.662
1.647
1.647
1.667
1.672
1.667
1.676
1.691
1.686
1.667
1.652
1.667
1.676
1.667
1.672
1.691
1.701
1.696
1.681
1.681
1.686
1.667
1.647
1.657
1.676
1.676
1.667
1.667
1.691
1.701
1.696
1.725
1.779
1.828
1.877
1.935
2.004
2.058
2.077
2.087
2.102
2.092
2.048
1.984
1.921
1.852
1.764
1.691
1.657
1.637
1.613
1.588
1.584
1.603
1.613
1.608
1.623
1.647
1.647
1.632
1.628
1.642
1.652
1.637
1.637
1.662
1.676
1.681
1.681
1.696
1.711
1.691
1.667
1.672
1.676
1.662
1.652
1.657
1.681
1.676
1.657
1.667
1.691
1.696
1.686
1.681
1.691
1.701
1.681
1.667
1.672
1.667
1.657
1.652
1.667
1.686
1.676
1.667
1.676
1.686
1.676
1.657
1.652
1.672
1.676
1.662
1.676
1.701
1.706
1.701
1.701
1.716
1.73
1.711
1.711
1.735
1.755
1.75
1.74
1.735
1.735
1.711
1.691
1.701
1.72
1.72
1.716
1.725
1.745
1.75
1.745
1.75
1.769
1.774
1.76
1.75
1.75
1.75
1.73
1.73
1.755
1.774
1.774
1.774
1.794
1.823
1.818
1.804
1.799
1.789
1.774
1.76
1.764
1.784
1.784
1.764
1.774
1.784
1.784
1.769
1.764
1.774
1.779
1.745
1.735
1.735
1.73
1.716
1.706
1.716
1.73
1.72
1.701
1.711
1.72
1.711
1.686
1.667
1.662
1.637
1.598
1.593
1.623
1.637
1.637
1.637
1.662
1.681
1.667
1.662
1.676
1.676
1.652
1.632
1.637
1.647
1.632
1.623
1.632
1.647
1.642
1.628
1.618
1.623
1.613
1.593
1.598
1.618
1.623
1.618
1.618
1.632
1.647
1.632
1.623
1.632
1.642
1.637
1.632
1.647
1.672
1.662
1.642
1.642
1.652
1.647
1.637
1.632
1.647
1.642
1.632
1.642
1.667
1.667
1.647
1.632
1.642
1.662
1.647
1.647
1.662
1.676
1.672
1.667
1.676
1.686
1.667
1.652
1.657
1.662
1.652
1.637
1.632
1.642
1.637
1.618
1.628
1.647
1.652
1.647
1.652
1.672
1.681
1.667
1.662
1.681
1.681
1.667
1.647
1.647
1.647
1.632
1.623
1.637
1.652
1.647
1.647
1.662
1.681
1.676
1.657
1.657
1.676
1.672
1.652
1.637
1.647
1.652
1.628
1.623
1.642
1.657
1.652
1.642
1.652
1.667
1.662
1.652
1.667
1.681
1.676
1.662
1.667
1.681
1.681
1.652
1.647
1.657
1.647
1.632
1.628
1.642
1.647
1.628
1.628
1.647
1.657
1.652
1.642
1.642
1.647
1.628
1.613
1.637
1.667
1.676
1.676
1.691
1.706
1.701
1.667
1.652
1.657
1.642
1.632
1.632
1.657
1.676
1.667
1.662
1.672
1.672
1.662
1.647
1.657
1.676
1.681
1.691
1.725
1.755
1.755
1.745
1.74
1.745
1.73
1.701
1.696
1.706
1.696
1.681
1.676
1.691
1.701
1.681
1.676
1.691
1.696
1.676
1.662
1.667
1.681
1.672
1.667
1.676
1.681
1.672
1.657
1.657
1.667
1.657
1.637
1.647
1.676
1.686
1.686
1.686
1.696
1.696
1.667
1.652
1.657
1.662
1.647
1.637
1.647
1.667
1.662
1.667
1.691
1.711
1.706
1.691
1.681
1.691
1.681
1.662
1.676
1.716
1.755
1.784
1.823
1.877
1.926
1.955
1.994
2.048
2.077
2.072
2.048
2.023
1.989
1.911
1.818
1.75
1.691
1.632
1.588
1.579
1.593
1.603
1.593
1.608
1.637
1.642
1.642
1.647
1.672
1.691
1.676
1.681
1.706
1.72
1.701
1.672
1.662
1.657
1.632
1.618
1.628
1.642
1.637
1.632
1.642
1.672
1.686
1.672
1.681
1.701
1.701
1.691
1.681
1.681
1.676
1.657
1.647
1.667
1.676
1.681
1.681
1.701
1.725
1.716
1.696
1.701
1.711
1.711
1.701
1.701
1.72
1.72
1.696
1.696
1.706
1.701
1.691
1.681
1.696
1.701
1.672
1.667
1.696
1.716
1.72
1.72
1.735
1.76
1.755
1.745
1.755
1.764
1.75
1.73
1.73
1.735
1.725
1.706
1.716
1.74
1.75
1.74
1.75
1.769
1.789
1.774
1.774
1.789
1.794
1.779
1.76
1.764
1.774
1.76
1.75
1.764
1.789
1.789
1.784
1.799
1.818
1.823
1.804
1.804
1.813
1.808
1.799
1.794
1.804
1.808
1.784
1.774
1.784
1.784
1.769
1.75
1.745
1.75
1.725
1.701
1.696
1.696
1.686
1.672
1.667
1.681
1.681
1.667
1.672
1.686
1.681
1.657
1.647
1.647
1.647
1.623
1.623
1.647
1.662
1.657
1.642
1.652
1.662
1.642
1.618
1.628
1.642
1.637
1.642
1.647
1.672
1.667
1.642
1.642
1.652
1.647
1.637
1.632
1.652
1.662
1.647
1.642
1.657
1.667
1.652
1.637
1.642
1.652
1.642
1.632
1.647
1.662
1.657
1.652
1.657
1.672
1.667
1.642
1.642
1.657
1.657
1.642
1.642
1.662
1.676
1.662
1.672
1.696
1.706
1.681
1.667
1.667
1.676
1.657
1.628
1.632
1.642
1.637
1.632
1.642
1.667
1.672
1.657
1.667
1.691
1.696
1.686
1.672
1.676
1.676
1.652
1.642
1.657
1.662
1.647
1.637
1.642
1.662
1.652
1.642
1.652
1.662
1.652
1.642
1.647
1.676
1.686
1.672
1.681
1.701
1.701
1.681
1.662
1.652
1.642
1.623
1.623
1.652
1.672
1.676
1.672
1.686
1.696
1.672
1.652
1.652
1.652
1.637
1.628
1.642
1.676
1.676
1.657
1.662
1.681
1.676
1.657
1.647
1.662
1.672
1.657
1.657
1.681
1.701
1.701
1.701
1.706
1.72
1.706
1.696
1.701
1.706
1.691
1.676
1.681
1.696
1.686
1.676
1.691
1.725
1.735
1.74
1.745
1.76
1.764
1.735
1.711
1.701
1.681
1.657
1.642
1.647
1.657
1.642
1.637
1.652
1.667
1.657
1.647
1.652
1.667
1.657
1.637
1.652
1.676
1.681
1.676
1.667
1.672
1.667
1.642
1.642
1.667
1.681
1.676
1.672
1.686
1.706
1.696
1.681
1.681
1.676
1.662
1.652
1.662
1.701
1.725
1.745
1.794
1.862
1.911
1.94
1.97
2.004
2.023
1.999
1.989
1.994
1.97
1.916
1.852
1.804
1.75
1.676
1.608
1.584
1.574
1.569
1.569
1.593
1.632
1.652
1.652
1.667
1.686
1.686
1.672
1.662
1.676
1.686
1.672
1.672
1.696
1.706
1.696
1.681
1.676
1.681
1.657
1.632
1.637
1.647
1.647
1.642
1.652
1.676
1.672
1.642
1.637
1.652
1.647
1.642
1.642
1.672
1.696
1.696
1.701
1.711
1.711
1.701
1.691
1.701
1.711
1.701
1.696
1.716
1.735
1.725
1.706
1.696
1.696
1.676
1.647
1.657
1.681
1.696
1.701
1.716
1.735
1.735
1.711
1.696
1.711
1.72
1.72
1.716
1.73
1.755
1.75
1.745
1.755
1.764
1.745
1.725
1.73
1.755
1.755
1.735
1.745
1.769
1.779
1.774
1.779
1.794
1.804
1.784
1.779
1.789
1.794
1.784
1.774
1.784
1.799
1.799
1.804
1.833
1.857
1.843
1.818
1.804
1.794
1.774
1.745
1.745
1.76
1.76
1.755
1.769
1.794
1.804
1.779
1.764
1.764
1.755
1.73
1.706
1.706
1.711
1.691
1.672
1.681
1.681
1.662
1.642
1.647
1.667
1.667
1.652
1.662
1.676
1.667
1.642
1.628
1.623
1.608
1.574
1.574
