Num1
1.745
1.735
1.72
1.74
1.784
1.818
1.828
1.828
1.818
1.799
1.75
1.725
1.74
1.76
1.774
1.784
1.813
1.848
1.838
1.804
1.794
1.789
1.769
1.745
1.735
1.755
1.769
1.774
1.794
1.818
1.818
1.799
1.789
1.789
1.794
1.769
1.745
1.755
1.764
1.764
1.755
1.75
1.75
1.716
1.672
1.676
1.701
1.716
1.711
1.706
1.711
1.711
1.676
1.667
1.676
1.681
1.681
1.691
1.716
1.73
1.716
1.701
1.72
1.725
1.716
1.711
1.725
1.755
1.76
1.74
1.735
1.73
1.706
1.686
1.681
1.696
1.706
1.691
1.706
1.73
1.74
1.725
1.706
1.701
1.711
1.691
1.691
1.72
1.755
1.764
1.76
1.75
1.755
1.73
1.701
1.701
1.706
1.701
1.696
1.706
1.74
1.769
1.76
1.764
1.784
1.774
1.76
1.745
1.755
1.764
1.75
1.745
1.779
1.808
1.823
1.833
1.843
1.862
1.857
1.838
1.857
1.887
1.887
1.887
1.901
1.935
1.96
1.95
1.965
1.994
2.004
1.999
1.984
1.984
1.984
1.94
1.906
1.906
1.906
1.906
1.911
1.945
1.989
2.004
1.999
2.014
2.019
2.009
1.994
1.975
1.975
1.979
1.965
1.999
2.058
2.092
2.107
2.111
2.126
2.126
2.082
2.023
1.994
1.965
1.926
1.887
1.862
1.857
1.843
1.833
1.857
1.891
1.906
1.906
1.921
1.95
1.96
1.945
1.945
1.965
1.97
1.945
1.931
1.931
1.945
1.926
1.916
1.935
1.945
1.935
1.921
1.921
1.935
1.931
1.911
1.921
1.94
1.945
1.94
1.935
1.945
1.95
1.926
1.926
1.94
1.931
1.911
1.891
1.891
1.896
1.882
1.867
1.882
1.891
1.872
1.843
1.828
1.828
1.799
1.764
1.764
1.774
1.769
1.76
1.755
1.76
1.74
1.686
1.662
1.667
1.667
1.657
1.657
1.667
1.686
1.676
1.672
1.691
1.696
1.676
1.662
1.667
1.681
1.662
1.623
1.613
1.618
1.613
1.603
1.608
1.637
1.652
1.637
1.642
1.672
1.686
1.676
1.657
1.647
1.652
1.623
1.603
1.613
1.613
1.598
1.579
1.564
1.564
1.544
1.52
1.54
1.564
1.569
1.574
1.593
1.623
1.632
1.608
1.593
1.603
1.593
1.569
1.549
1.544
1.54
1.515
1.51
1.549
1.569
1.559
1.54
1.54
1.554
1.544
1.515
1.505
1.5
1.481
1.452
1.427
1.427
1.422
1.393
1.393
1.408
1.422
1.422
1.427
1.447
1.466
1.457
1.457
1.486
1.52
1.535
1.54
1.554
1.569
1.549
1.505
1.496
1.5
1.486
1.466
1.461
1.481
1.491
1.476
1.481
1.5
1.496
1.471
1.442
1.437
1.437
1.403
1.373
1.378
1.383
1.369
1.354
1.359
1.388
1.413
1.422
1.457
1.496
1.51
1.51
1.505
1.515
1.5
1.457
1.437
1.452
1.452
1.437
1.422
1.427
1.432
1.413
1.393
1.403
1.403
1.388
1.369
1.369
1.378
1.364
1.329
1.329
1.344
1.354
1.354
1.364
1.388
1.398
1.388
1.408
1.432
1.422
1.383
1.349
1.349
1.354
1.334
1.334
1.388
1.447
1.481
1.486
1.486
1.496
1.476
1.427
1.408
1.398
1.369
1.339
1.325
1.329
1.32
1.281
1.261
1.251
1.237
1.217
1.212
1.232
1.251
1.227
1.202
1.197
1.183
1.149
1.105
1.07
1.061
1.031
0.987
0.973
0.963
0.929
0.875
0.816
0.753
0.67
0.547
0.435
0.332
0.2
0.049
0.0
0.0
0.0
0.0
0.0
0.0
0.0
0.0
0.0
0.0
0.0
0.0
0.0
0.01
0.064
0.108
0.142
0.176
0.21
0.22
0.2
0.196
0.22
0.239
0.249
0.279
0.332
0.381
0.391
0.401
0.425
0.45
0.445
0.435
0.43
0.44
0.44
0.435
0.464
0.499
0.513
0.518
0.518
0.533
0.538
0.518
0.523
0.557
0.582
0.596
0.616
0.65
0.684
0.694
0.714
0.758
0.797
0.816
0.831
0.855
0.894
0.914
0.909
0.929
0.938
0.934
0.934
0.948
0.987
1.012
1.007
1.026
1.065
1.09
1.095
1.105
1.119
1.139
1.119
1.105
1.114
1.124
1.119
1.124
1.153
1.212
1.246
1.266
1.315
1.373
1.408
1.417
1.417
1.432
1.437
1.417
1.432
1.471
1.5
1.51
1.515
1.535
1.549
1.54
1.54
1.569
1.588
1.584
1.564
1.554
1.564
1.554
1.54
1.574
1.628
1.676
1.716
1.755
1.808
1.838
1.823
1.818
1.828
1.818
1.799
1.794
1.823
1.862
1.872
1.882
1.926
1.96
1.965
1.95
1.94
1.945
1.935
1.911
1.94
1.979
2.004
2.019
2.038
2.067
2.077
2.043
2.019
2.004
1.979
1.945
1.926
1.935
1.95
1.931
1.921
1.94
1.95
1.94
1.926
1.926
1.945
1.95
1.94
1.96
1.984
1.989
1.989
1.989
2.004
2.004
1.965
1.955
1.97
1.975
1.965
1.955
1.97
1.999
1.994
1.989
2.009
2.023
2.014
1.989
1.975
1.975
1.955
1.935
1.965
2.004
2.023
2.033
2.038
2.053
2.048
2.014
1.994
2.004
2.004
1.999
1.994
1.999
2.009
1.979
1.955
1.97
1.979
1.975
1.955
1.955
1.965
1.955
1.926
1.926
1.935
1.921
1.901
1.891
1.906
1.906
1.867
1.852
1.862
1.862
1.843
1.838
1.862
1.896
1.911
1.931
1.984
2.033
2.048
2.053
2.063
2.077
2.067
2.038
2.043
2.058
2.058
2.053
2.053
2.067
2.072
2.043
2.038
2.063
2.063
2.048
2.033
2.048
2.072
2.058
2.033
2.038
2.043
2.038
2.028
2.028
2.048
2.043
2.019
2.028
2.063
2.087
2.107
2.121
2.146
2.151
2.126
2.126
2.141
2.136
2.111
2.087
2.082
2.092
2.082
2.077
2.107
2.126
2.121
2.111
2.111
2.126
2.116
2.077
2.077
2.087
2.082
2.063
2.048
2.053
2.058
2.038
2.033
2.048
2.048
2.033
2.023
2.038
2.058
2.038
2.014
2.019
2.023
2.019
2.009
2.019
2.043
2.043
2.023
2.033
2.053
2.048
2.023
2.009
2.019
2.028
2.004
2.004
2.023
2.023
2.009
1.984
1.97
1.96
1.926
1.911
1.94
1.975
1.979
1.984
1.989
2.004
1.984
1.945
1.935
1.94
1.926
1.911
1.906
1.926
1.95
1.94
1.95
1.979
1.984
1.979
1.965
1.965
1.97
1.945
1.926
1.945
1.965
1.97
1.965
1.984
2.014
2.014
1.975
1.965
1.965
1.945
1.916
1.901
1.906
1.906
1.882
1.887
1.921
1.94
1.935
1.931
1.935
1.95
1.931
1.916
1.931
1.945
1.94
1.931
1.926
1.935
1.921
1.887
1.887
1.901
1.896
1.872
1.843
1.838
1.833
1.804
1.794
1.808
1.808
1.799
1.799
1.818
1.838
1.823
1.804
1.818
1.838
1.833
1.818
1.804
1.794
1.764
1.72
1.716
1.725
1.716
1.706
1.706
1.735
1.75
1.73
1.735
1.76
1.755
1.74
1.725
1.73
1.73
1.696
1.672
1.691
1.706
1.706
1.696
1.706
1.74
1.74
1.72
1.72
1.725
1.706
1.676
1.667
1.681
1.691
1.672
1.681
1.716
1.725
1.716
1.701
1.706
1.716
1.696
1.681
1.706
1.725
1.73
1.735
1.75
1.774
1.76
1.716
1.706
1.701
1.672
1.632
1.593
1.574
1.549
1.5
1.486
1.51
1.525
1.535
1.544
1.584
1.623
1.628
1.632
1.662
1.686
1.681
1.662
1.647
1.652
1.632
1.603
1.613
1.642
1.657
1.657
1.662
1.686
1.696
1.672
1.662
1.676
1.681
1.672
1.667
1.676
1.696
1.681
1.667
1.686
1.701
1.691
1.676
1.676
1.691
1.686
1.657
1.672
1.691
1.686
1.676
1.662
1.676
1.681
1.657
1.667
1.701
1.72
1.716
1.706
1.711
1.73
1.716
1.701
1.716
1.73
1.725
1.72
1.73
1.755
1.75
1.716
1.716
1.73
1.73
1.72
1.711
1.725
1.73
1.701
1.706
1.73
1.745
1.745
1.74
1.75
1.769
1.745
1.72
1.74
1.755
1.755
1.74
1.74
1.764
1.764
1.745
1.75
1.769
1.769
1.764
1.755
1.764
1.764
1.73
1.72
1.745
1.745
1.73
1.72
1.73
1.755
1.74
1.73
1.755
1.764
1.75
1.73
1.725
1.735
1.72
1.676
1.667
1.676
1.667
1.647
1.637
1.652
1.652
1.628
1.632
1.662
1.676
1.667
1.657
1.667
1.676
1.642
1.608
1.603
1.598
1.574
1.554
1.549
1.569
1.564
1.54
1.549
1.564
1.559
1.54
1.525
1.535
1.544
1.52
1.525
1.549
1.559
1.549
1.535
1.54
1.549
1.53
1.515
1.54
1.564
1.564
1.559
1.559
1.564
1.544
1.5
1.496
1.51
1.505
1.5
1.496
1.515
1.515
1.476
1.466
1.486
1.496
1.496
1.496
1.525
1.559
1.554
1.544
1.559
1.559
1.535
1.505
1.491
1.5
1.491
1.471
1.486
1.52
1.53
1.53
1.525
1.54
1.544
1.52
1.52
1.549
1.564
1.559
1.554
1.569
1.584
1.559
1.535
1.544
1.564
1.559
1.549
1.554
1.569
1.554
1.52
1.52
1.544
1.544
1.54
1.54
1.559
1.574
1.549
1.544
1.564
1.559
1.535
1.51
1.52
1.544
1.54
1.535
1.564
1.593
1.598
1.593
1.598
1.618
1.613
1.579
1.584
1.593
1.588
1.569
1.559
1.574
1.579
1.554
1.554
1.579
1.588
1.584
1.579
1.584
1.598
1.574
1.544
1.559
1.574
1.569
1.564
1.569
1.593
1.593
1.564
1.569
1.574
1.564
1.544
1.535
1.554
1.564
1.549
1.554
1.584
1.598
1.598
1.598
1.613
1.637
1.623
1.613
1.637
1.647
1.637
1.618
1.603
1.608
1.584
1.544
1.549
1.579
1.588
1.593
1.598
1.623
1.642
1.623
1.628
1.652
1.657
1.642
1.628
1.632
1.642
1.618
1.603
1.628
1.642
1.647
1.647
1.662
1.691
1.681
1.657
1.657
1.662
1.652
1.637
1.628
1.647
1.657
1.642
1.642
1.662
1.681
1.681
1.672
1.676
1.681
1.647
1.618
1.618
1.618
1.593
1.569
1.559
1.569
1.559
1.53
1.535
1.559
1.564
1.569
1.579
1.608
1.623
1.603
1.618
1.652
1.676
1.676
1.667
1.681
1.696
1.676
1.652
1.662
1.672
1.657
1.642
1.642
1.667
1.672
1.652
1.662
1.681
1.681
1.681
1.681
1.691
1.691
1.662
1.667
1.701
1.716
1.711
1.701
1.711
1.73
1.711
1.696
1.706
1.711
1.696
1.676
1.672
1.686
1.686
1.667
1.686
1.711
1.706
1.696
1.686
1.696
1.696
1.667
1.667
1.701
1.725
1.735
1.74
1.76
1.779
1.76
1.725
1.725
1.72
1.686
1.657
1.637
1.642
1.632
1.608
1.628
1.657
1.667
1.667
1.676
1.706
1.73
1.72
1.725
1.745
1.75
1.735
1.725
1.735
1.755
1.735
1.72
1.75
1.779
1.789
1.794
1.813
1.843
1.838
1.804
1.808
1.833
1.848
1.843
1.838
1.838
1.823
1.769
1.735
1.72
1.691
1.652
1.623
1.628
1.642
1.628
1.613
1.628
1.642
1.632
1.613
1.598
1.598
1.579
1.544
1.54
1.554
1.559
1.564
1.579
1.623
1.662
1.657
1.652
1.662
1.657
1.642
1.642
1.662
1.691
1.681
1.662
1.676
1.686
1.667
1.642
1.623
1.623
1.598
1.564
1.564
1.574
1.564
1.544
1.54
1.554
1.559
1.535
1.535
1.564
1.579
1.574
1.569
1.574
1.584
1.574
1.564
1.588
1.603
1.588
1.564
1.559
1.584
1.593
1.598
1.637
1.686
1.706
1.691
1.676
1.681
1.667
1.628
1.613
1.642
1.662
1.667
1.667
1.676
1.676
1.628
1.569
1.554
1.549
1.535
1.544
1.584
1.647
1.681
1.691
1.711
1.725
1.706
1.667
1.628
1.613
1.593
1.564
1.579
1.632
1.676
1.696
1.696
1.696
1.686
1.632
1.569
1.544
1.53
1.505
1.5
1.53
1.584
1.628
1.647
1.691
1.72
1.701
1.662
1.637
1.642
1.657
1.647
1.667
1.72
1.764
1.779
1.769
1.755
1.73
1.672
1.618
1.608
1.613
1.608
1.608
1.623
1.652
1.657
1.632
1.632
1.642
1.637
1.623
1.623
1.647
1.667
1.652
1.647
1.667
1.672
1.662
1.662
1.686
1.725
1.725
1.735
1.774
1.804
1.794
1.764
1.735
1.701
1.652
1.603
1.608
1.647
1.681
1.706
1.735
1.779
1.804
1.774
1.755
1.75
1.735
1.706
1.686
1.696
1.716
1.701
1.686
1.696
1.691
1.657
1.628
1.608
1.608
1.593
1.549
1.535
1.53
1.491
1.432
1.364
1.3
1.212
1.105
1.036
1.012
0.992
0.978
0.987
1.022
1.07
1.09
1.1
1.129
1.153
1.158
1.163
1.178
1.222
1.237
1.227
1.232
1.237
1.217
1.183
1.168
1.183
1.212
1.222
1.261
1.32
1.364
1.383
1.398
1.413
1.427
1.417
1.398
1.413
1.437
1.442
1.432
1.427
1.427
1.398
1.344
1.329
1.334
1.32
1.295
1.271
1.266
1.251
1.188
1.158
1.158
1.158
1.163
1.178
1.217
1.285
1.325
1.373
1.442
1.496
1.505
1.491
1.481
1.476
1.447
1.403
1.408
1.427
1.432
1.427
1.437
1.457
1.461
1.432
1.422
1.452
1.466
1.466
1.466
1.496
1.53
1.525
1.496
1.491
1.481
1.457
1.447
1.461
1.5
1.525
1.53
1.564
1.603
1.618
1.613
1.588
1.559
1.53
1.476
1.457
1.476
1.491
1.505
1.53
1.569
1.618
1.618
1.608
1.618
1.613
1.584
1.549
1.525
1.525
1.52
1.5
1.52
1.554
1.574
1.584
1.588
1.603
1.613
1.598
1.603
1.632
1.637
1.623
1.628
1.662
1.706
1.701
1.686
1.696
1.696
1.686
1.681
1.691
1.706
1.686
1.647
1.647
1.662
1.652
1.632
1.642
1.691
1.74
1.755
1.779
1.813
1.828
1.818
1.804
1.799
1.789
1.755
1.725
1.74
1.75
1.735
1.711
1.691
1.681
1.647
1.613
1.632
1.672
1.696
1.701
1.701
1.706
1.701
1.657
1.628
1.632
1.623
1.603
1.588
1.598
1.618
1.598
1.579
1.593
1.603
1.584
1.554
1.559
1.588
1.598
1.564
1.549
1.535
1.505
1.461
1.427
1.432
1.432
1.417
1.427
1.461
1.481
1.486
1.476
1.476
1.466
1.422
1.373
1.378
1.393
1.398
1.398
1.413
1.457
1.476
1.476
1.505
1.535
1.535
1.51
1.491
1.491
1.5
1.481
1.476
1.5
1.525
1.54
1.554
1.584
1.608
1.593
1.569
1.574
1.574
1.554
1.535
1.535
1.549
1.549
1.54
1.574
1.618
1.637
1.642
1.637
1.647
1.642
1.598
1.569
1.569
1.564
1.554
1.554
1.579
1.613
1.623
1.632
1.672
1.701
1.706
1.706
1.716
1.74
1.75
1.735
1.764
1.813
1.848
1.872
1.896
1.931
1.965
1.96
1.984
2.038
2.092
2.121
2.146
2.195
2.248
2.263
2.258
2.283
2.302
2.292
2.283
2.287
2.297
2.287
2.239
2.229
2.239
2.219
2.19
2.17
2.17
2.18
2.16
2.16
2.18
2.19
2.185
2.175
2.185
2.195
2.185
2.17
2.19
2.214
2.209
2.195
2.185
2.185
2.165
2.126
2.111
2.116
2.097
2.077
2.077
2.102
2.121
2.116
2.126
2.165
2.18
2.165
2.141
2.131
2.126
2.097
2.067
2.077
2.092
2.092
2.082
2.077
2.092
2.082
2.048
2.048
2.072
2.072
2.058
2.058
2.077
2.077
2.033
2.019
2.028
2.038
2.043
2.058
2.092
2.126
2.121
2.107
2.116
2.121
2.107
2.077
2.058
2.053
2.043
2.019
2.023
2.043
2.038
2.019
2.004
2.014
2.014
1.979
1.975
2.004
2.019
2.014
2.004
2.009
2.014
1.989
1.965
1.975
1.984
1.97
1.955
1.97
2.004
2.019
2.004
2.009
2.023
2.019
2.009
1.989
1.979
1.955
1.896
1.857
1.852
1.838
1.808
1.784
1.779
1.789
1.779
1.779
1.813
1.857
1.872
1.877
1.891
1.921
1.921
1.896
1.901
1.926
1.935
1.931
1.931
1.94
1.955
1.935
1.931
1.945
1.95
1.935
1.921
1.931
1.955
1.945
1.935
1.96
1.979
1.979
1.975
1.97
1.979
1.975
1.95
1.95
1.97
1.97
1.96
1.955
1.975
1.989
1.965
1.96
1.984
1.994
1.984
1.97
1.965
1.965
1.935
1.911
1.926
1.94
1.931
1.916
1.931
1.965
1.975
1.955
1.96
1.984
1.989
1.984
1.979
1.989
1.994
1.97
1.95
1.97
1.975
1.965
1.95
1.95
1.955
1.931
1.896
1.901
1.916
1.916
1.911
1.931
1.965
1.984
1.975
1.994
2.019
2.019
1.999
1.975
1.96
1.96
1.935
1.935
1.96
1.97
1.97
1.97
1.975
1.979
1.96
1.926
1.931
1.935
1.921
1.906
1.901
1.926
1.931
1.906
1.901
1.906
1.901
1.891
1.887
1.891
1.891
1.862
1.857
1.887
1.906
1.896
1.877
1.872
1.877
1.857
1.828
1.843
1.852
1.843
1.828
1.823
1.838
1.828
1.799
1.799
1.823
1.838
1.833
1.833
1.848
1.843
1.804
1.784
1.799
1.808
1.799
1.794
1.804
1.823
1.818
1.804
1.813
1.818
1.799
1.784
1.784
1.804
1.808
1.784
1.794
1.818
1.823
1.808
1.799
1.804
1.804
1.779
1.769
1.789
1.808
1.804
1.789
1.789
1.799
1.779
1.755
1.76
1.764
1.75
1.735
1.735
1.75
1.75
1.73
1.74
1.764
1.769
1.764
1.76
1.779
1.789
1.76
1.745
1.755
1.75
1.735
1.73
1.74
1.769
1.764
1.76
1.779
1.799
1.784
1.769
1.75
1.745
1.716
1.676
1.681
1.72
1.73
1.73
1.73
1.75
1.764
1.74
1.72
1.73
1.73
1.711
1.696
1.706
1.725
1.716
1.716
1.75
1.779
1.774
1.755
1.745
1.755
1.755
1.725
1.73
1.755
1.76
1.755
1.764
1.784
1.794
1.76
1.74
1.74
1.74
1.72
1.711
1.716
1.735
1.73
1.716
1.73
1.75
1.74
1.73
1.725
1.74
1.73
1.706
1.716
1.74
1.745
1.74
1.745
1.764
1.774
1.745
1.73
1.745
1.745
1.735
1.725
1.725
1.74
1.72
1.701
1.706
1.716
1.706
1.686
1.681
1.691
1.686
1.667
1.676
1.706
1.706
1.701
1.691
1.706
1.716
1.691
1.686
1.716
1.725
1.711
1.691
1.696
1.711
1.686
1.657
1.672
1.691
1.691
1.686
1.686
1.696
1.681
1.647
1.647
1.672
1.681
1.681
1.686
1.706
1.72
1.691
1.672
1.686
1.686
1.672
1.652
1.657
1.686
1.686
1.672
1.691
1.701
1.691
1.676
1.672
1.691
1.696
1.676
1.691
1.735
1.76
1.769
1.774
1.794
1.794
1.755
1.73
1.735
1.73
1.701
1.667
1.647
1.637
1.593
1.554
1.554
1.554
1.544
1.535
1.54
1.579
1.608
1.608
1.637
1.667
1.681
1.676
1.672
1.696
1.711
1.686
1.686
1.716
1.735
1.735
1.725
1.735
1.75
1.735
1.711
1.725
1.735
1.73
1.72
1.725
1.75
1.745
1.706
1.701
1.716
1.716
1.706
1.701
1.725
1.745
1.73
1.725
1.755
1.764
1.745
1.725
1.73
1.745
1.735
1.716
1.735
1.76
1.764
1.76
1.76
1.764
1.755
1.72
1.72
1.75
1.76
1.764
1.769
1.789
1.804
1.779
1.774
1.794
1.799
1.784
1.764
1.769
1.789
1.779
1.755
1.769
1.784
1.779
1.764
1.764
1.784
1.789
1.769
1.784
1.818
1.828
1.823
1.818
1.833
1.843
1.813
1.804
1.818
1.828
1.818
1.818
1.838
1.862
1.857
1.838
1.852
1.867
1.857
1.828
1.808
1.813
1.808
1.784
1.804
1.833
1.843
1.833
1.828
1.838
1.852
1.818
1.789
1.779
1.774
1.764
1.76
1.774
1.799
1.784
1.769
1.789
1.808
1.804
1.789
1.784
1.789
1.769
1.725
1.72
1.735
1.73
1.711
1.701
1.716
1.72
1.686
1.676
1.701
1.716
1.711
1.696
1.701
1.716
1.701
1.686
1.701
1.711
1.706
1.691
1.686
1.701
1.701
1.672
1.672
1.701
1.706
1.691
1.672
1.676
1.676
1.652
1.657
1.691
1.716
1.706
1.696
1.711
1.725
1.701
1.662
1.657
1.672
1.672
1.672
1.686
1.72
1.735
1.711
1.711
1.716
1.701
1.676
1.657
1.662
1.676
1.662
1.667
1.701
1.725
1.72
1.716
1.716
1.73
1.711
1.686
1.696
1.72
1.72
1.72
1.725
1.745
1.74
1.696
1.681
1.686
1.686
1.681
1.681
1.706
1.725
1.711
1.711
1.73
1.73
1.701
1.676
1.686
1.716
1.711
1.696
1.716
1.745
1.745
1.74
1.735
1.745
1.74
1.711
1.716
1.745
1.755
1.74
1.73
1.74
1.75
1.725
1.716
1.73
1.735
1.725
1.72
1.725
1.74
1.73
1.716
1.73
1.755
1.75
1.73
1.72
1.73
1.725
1.691
1.686
1.701
1.686
1.667
1.647
1.652
1.657
1.628
1.618
1.647
1.686
1.691
1.686
1.691
1.701
1.676
1.632
1.628
1.613
1.579
1.544
1.54
1.554
1.554
1.525
1.535
1.549
1.544
1.52
1.5
1.505
1.515
1.486
1.481
1.5
1.51
1.496
1.476
1.476
1.471
1.427
1.359
1.325
1.29
1.241
1.202
1.188
1.197
1.202
1.188
1.197
1.241
1.256
1.241
1.207
1.188
1.168
1.114
1.08
1.085
1.085
1.07
1.051
1.036
1.026
0.978
0.924
0.894
0.89
0.88
0.865
0.87
0.899
0.919
0.924
0.948
0.992
1.017
1.036
1.056
1.105
1.149
1.153
1.168
1.207
1.232
1.237
1.251
1.276
1.31
1.3
1.281
1.285
1.295
1.271
1.241
1.222
1.241
1.256
1.256
1.295
1.354
1.393
1.413
1.417
1.427
1.437
1.417
1.422
1.457
1.481
1.491
1.496
1.51
1.53
1.51
1.486
1.496
1.515
1.53
1.54
1.564
1.613
1.647
1.657
1.686
1.73
1.75
1.755
1.764
1.794
1.818
1.808
1.808
1.843
1.877
1.887
1.891
1.911
1.94
1.945
1.94
1.979
2.023
2.048
2.063
2.087
2.136
2.17
2.185
2.234
2.317
2.395
2.478
2.581
2.717
2.864
2.981
3.099
3.231
3.358
3.363
3.363
3.363
3.363
3.363
3.363
3.363
3.358
3.363
3.363
3.363
3.363
3.363
3.363
3.358
3.358
3.363
3.363
3.363
3.363
3.363
3.363
3.358
3.358
3.358
3.343
3.289
3.245
3.206
3.143
3.069
3.05
3.04
3.021
2.996
2.986
2.991
2.981
2.937
2.918
2.918
2.893
2.859
2.825
2.805
2.786
2.727
2.678
2.669
2.654
2.625
2.59
2.576
2.576
2.551
2.512
2.512
2.512
2.493
2.463
2.444
2.444
2.434
2.4
2.395
2.41
2.41
2.39
2.366
2.361
2.351
2.312
2.278
2.273
2.258
2.229
2.204
2.195
2.199
2.175
2.141
2.131
2.136
2.111
2.087
2.067
2.067
2.048
2.009
1.994
2.009
1.999
1.979
1.96
1.97
1.975
1.95
1.935
1.95
1.95
1.921
1.887
1.872
1.867
1.828
1.784
1.789
1.808
1.813
1.813
1.823
1.843
1.833
1.789
1.774
1.779
1.764
1.74
1.725
1.735
1.75
1.725
1.711
1.73
1.735
1.725
1.706
1.701
1.711
1.691
1.657
1.657
1.667
1.647
1.628
1.613
1.623
1.618
1.588
1.584
1.593
1.584
1.559
1.544
1.544
1.549
1.525
1.515
1.544
1.569
1.564
1.549
1.544
1.549
1.52
1.481
1.476
1.486
1.471
1.457
1.452
1.466
1.461
1.422
1.417
1.427
1.422
1.403
1.393
1.398
1.403
1.373
1.354
1.369
1.378
1.364
1.349
1.349
1.364
1.354
1.329
1.349
1.373
1.369
1.359
1.354
1.373
1.373
1.339
1.334
1.354
1.359
1.354
1.354
1.378
1.398
1.378
1.364
1.378
1.383
1.373
1.369
1.373
1.398
1.393
1.378
1.398
1.432
1.437
1.422
1.417
1.422
1.417
1.393
1.398
1.422
1.437
1.432
1.432
1.447
1.471
1.457
1.447
1.466
1.476
1.461
1.442
1.437
1.442
1.417
1.378
1.364
1.354
1.32
1.29
1.281
1.29
1.29
1.266
1.285
1.334
1.369
1.383
1.403
1.437
1.471
1.461
1.457
1.481
1.496
1.491
1.481
1.486
1.5
1.491
1.466
1.476
1.486
1.481
1.466
1.466
1.486
1.486
1.461
1.466
1.486
1.491
1.471
1.461
1.476
1.496
1.481
1.476
1.496
1.51
1.505
1.491
1.486
1.5
1.491
1.466
1.486
1.51
1.515
1.51
1.51
1.525
1.525
1.496
1.496
1.52
1.53
1.53
1.52
1.53
1.544
1.525
1.505
1.515
1.525
1.51
1.5
1.505
1.525
1.515
1.491
1.505
1.53
1.535
1.535
1.535
1.559
1.564
1.535
1.53
1.549
1.559
1.549
1.544
1.559
1.569
1.549
1.54
1.564
1.579
1.574
1.564
1.569
1.588
1.579
1.559
1.579
1.598
1.593
1.579
1.574
1.584
1.584
1.559
1.559
1.579
1.584
1.579
1.574
1.584
1.593
1.559
1.54
1.549
1.549
1.54
1.525
1.53
1.559
1.554
1.53
1.535
1.549
1.54
1.515
1.5
1.505
1.5
1.471
1.471
1.496
1.505
1.496
1.486
1.491
1.496
1.461
1.442
1.452
1.461
1.452
1.447
1.452
1.471
1.461
1.432
1.442
1.466
1.466
1.461
1.452
1.466
1.466
1.432
1.422
1.437
1.432
1.417
1.408
1.417
1.432
1.408
1.403
1.427
1.447
1.447
1.442
1.447
1.471
1.466
1.447
1.461
1.481
1.476
1.466
1.461
1.476
1.476
1.447
1.447
1.466
1.471
1.461
1.452
1.461
1.476
1.457
1.447
1.471
1.481
1.476
1.471
1.486
1.505
1.496
1.466
1.476
1.491
1.481
1.461
1.452
1.466
1.476
1.447
1.452
1.481
1.496
1.496
1.486
1.496
1.51
1.486
1.471
1.491
1.5
1.491
1.476
1.481
1.505
1.496
1.476
1.491
1.52
1.52
1.515
1.515
1.53
1.53
1.5
1.496
1.52
1.53
1.52
1.515
1.525
1.54
1.51
1.491
1.505
1.525
1.52
1.515
1.52
1.544
1.535
1.515
1.53
1.554
1.554
1.544
1.549
1.574
1.588
1.559
1.564
1.584
1.588
1.574
1.559
1.564
1.579
1.554
1.535
1.544
1.554
1.54
1.525
1.53
1.549
1.54
1.51
1.52
1.535
1.54
1.535
1.535
1.549
1.549
1.52
1.515
1.535
1.54
1.525
1.51
1.52
1.535
1.515
1.5
1.52
1.535
1.53
1.52
1.52
1.535
1.515
1.486
1.496
1.525
1.535
1.535
1.53
1.544
1.544
1.52
1.525
1.544
1.549
1.54
1.535
1.554
1.579
1.569
1.559
1.574
1.584
1.569
1.549
1.549
1.559
1.544
1.52
1.54
1.564
1.569
1.569
1.579
1.618
1.642
1.623
1.623
1.647
1.647
1.628
1.598
1.588
1.584
1.54
1.5
1.5
1.496
1.476
1.452
1.442
1.452
1.447
1.427
1.452
1.486
1.51
1.525
1.544
1.584
1.608
1.588
1.588
1.608
1.608
1.598
1.584
1.588
1.593
1.569
1.554
1.574
1.593
1.593
1.593
1.598
1.618
1.613
1.593
1.608
1.628
1.623
1.608
1.603
1.623
1.632
1.608
1.608
1.628
1.637
1.628
1.623
1.632
1.652
1.632
1.623
1.637
1.647
1.642
1.632
1.642
1.667
1.667
1.642
1.652
1.676
1.672
1.657
1.647
1.657
1.657
1.623
1.628
1.652
1.662
1.657
1.657
1.676
1.691
1.667
1.657
1.676
1.691
1.686
1.676
1.676
1.696
1.686
1.657
1.667
1.691
1.696
1.691
1.691
1.706
1.72
1.696
1.691
1.716
1.725
1.716
1.706
1.716
1.73
1.716
1.701
1.72
1.73
1.716
1.701
1.706
1.72
1.716
1.696
1.72
1.75
1.75
1.74
1.73
1.745
1.75
1.711
1.701
1.716
1.716
1.706
1.706
1.716
1.73
1.691
1.667
1.676
1.681
1.672
1.662
1.667
1.681
1.672
1.642
1.647
1.662
1.657
1.637
1.628
1.632
1.632
1.598
1.598
1.618
1.628
1.618
1.613
1.623
1.632
1.613
1.598
1.613
1.628
1.623
1.613
1.618
1.637
1.632
1.608
1.613
1.618
1.593
1.574
1.569
1.574
1.569
1.54
1.54
1.569
1.588
1.584
1.579
1.588
1.603
1.574
1.559
1.584
1.613
1.618
1.618
1.628
1.652
1.647
1.623
1.628
1.637
1.628
1.613
1.608
1.628
1.637
1.613
1.613
1.632
1.637
1.628
1.623
1.637
1.652
1.632
1.618
1.632
1.637
1.623
1.608
1.613
1.637
1.637
1.623
1.642
1.676
1.686
1.681
1.676
1.686
1.691
1.652
1.637
1.652
1.652
1.642
1.637
1.652
1.672
1.652
1.642
1.657
1.672
1.662
1.652
1.652
1.662
1.647
1.623
1.637
1.662
1.657
1.647
1.647
1.662
1.662
1.632
1.637
1.657
1.657
1.647
1.642
1.652
1.672
1.652
1.637
1.657
1.672
1.657
1.647
1.652
1.672
1.672
1.647
1.657
1.676
1.676
1.662
1.652
1.662
1.667
1.642
1.647
1.676
1.691
1.681
1.672
1.681
1.691
1.662
1.637
1.647
1.657
1.647
1.632
1.632
1.647
1.637
1.608
1.623
1.642
1.647
1.628
1.618
1.623
1.618
1.579
1.579
1.608
1.623
1.618
1.613
1.632
1.652
1.632
1.618
1.628
1.632
1.618
1.603
1.613
1.637
1.632
1.608
1.618
1.642
1.642
1.637
1.632
1.647
1.652
1.628
1.623
1.642
1.647
1.642
1.637
1.647
1.662
1.647
1.628
1.647
1.657
1.647
1.642
1.647
1.662
1.657
1.637
1.657
1.691
1.696
1.691
1.696
1.72
1.735
1.716
1.706
1.72
1.716
1.691
1.657
1.637
1.623
1.579
1.535
1.535
1.535
1.52
1.51
1.52
1.549
1.554
1.544
1.579
1.623
1.642
1.637
1.642
1.667
1.686
1.667
1.662
1.681
1.686
1.676
1.672
1.686
1.706
1.686
1.667
1.676
1.691
1.681
1.676
1.681
1.706
1.701
1.672
1.676
1.696
1.691
1.676
1.676
1.691
1.701
1.672
1.676
1.706
1.72
1.72
1.711
1.716
1.716
1.681
1.657
1.672
1.691
1.686
1.681
1.681
1.696
1.696
1.672
1.681
1.701
1.701
1.696
1.696
1.716
1.725
1.711
1.716
1.74
1.74
1.72
1.711
1.72
1.74
1.716
1.696
1.701
1.716
1.706
1.701
1.716
1.73
1.73
1.711
1.73
1.76
1.769
1.764
1.769
1.789
1.794
1.76
1.75
1.764
1.769
1.76
1.75
1.76
1.774
1.755
1.74
1.76
1.784
1.784
1.779
1.779
1.799
1.789
1.764
1.769
1.789
1.779
1.764
1.76
1.769
1.779
1.75
1.75
1.764
1.769
1.76
1.75
1.745
1.75
1.72
1.691
1.706
1.72
1.711
1.691
1.686
1.706
1.696
1.662
1.667
1.691
1.691
1.681
1.667
1.672
1.676
1.642
1.628
1.647
1.647
1.632
1.628
1.642
1.667
1.657
1.642
1.662
1.676
1.662
1.642
1.637
1.647
1.637
1.603
1.608
1.623
1.628
1.623
1.618
1.637
1.652
1.623
1.618
1.637
1.647
1.632
1.628
1.637
1.647
1.632
1.623
1.642
1.657
1.647
1.632
1.632
1.642
1.632
1.608
1.618
1.642
1.652
1.647
1.642
1.652
1.652
1.618
1.608
1.623
1.628
1.608
1.598
1.613
1.632
1.623
1.613
1.637
1.657
1.662
1.657
1.667
1.686
1.672
1.637
1.642
1.657
1.652
1.642
1.637
1.652
1.657
1.632
1.632
1.657
1.662
1.652
1.642
1.657
1.672
1.652
1.628
1.637
1.652
1.642
1.623
1.618
1.632
1.632
1.613
1.623
1.647
1.652
1.657
1.662
1.676
1.686
1.662
1.657
1.676
1.676
1.662
1.652
1.662
1.676
1.652
1.632
1.647
1.672
1.667
1.652
1.652
1.667
1.662
1.628
1.637
1.657
1.657
1.647
1.647
1.667
1.681
1.662
1.657
1.681
1.686
1.667
1.647
1.652
1.662
1.647
1.628
1.642
1.662
1.657
1.647
1.647
1.662
1.652
1.623
1.623
1.637
1.632
1.628
1.628
1.642
1.652
1.623
1.608
1.628
1.632
1.618
1.598
1.598
1.608
1.593
1.584
1.618
1.642
1.647
1.637
1.632
1.642
1.632
1.598
1.593
1.608
1.608
1.608
1.623
1.657
1.676
1.662
1.652
1.672
1.672
1.652
1.637
1.647
1.662
1.652
1.637
1.662
1.681
1.672
1.652
1.647
1.667
1.667
1.657
1.681
1.725
1.745
1.75
1.75
1.769
1.769
1.725
1.701
1.696
1.676
1.642
1.613
1.603
1.593
1.554
1.52
1.525
1.535
1.535
1.53
1.544
1.584
1.608
1.598
1.628
1.667
1.681
1.681
1.676
1.696
1.701
1.667
1.657
1.681
1.701
1.706
1.706
1.72
1.74
1.72
1.696
1.706
1.716
1.701
1.681
1.676
1.701
1.706
1.686
1.696
1.72
1.73
1.725
1.72
1.73
1.74
1.716
1.711
1.725
1.73
1.711
1.696
1.701
1.711
1.686
1.672
1.696
1.725
1.725
1.725
1.735
1.755
1.745
1.716
1.72
1.74
1.74
1.73
1.725
1.735
1.74
1.716
1.716
1.74
1.75
1.74
1.73
1.74
1.76
1.735
1.701
1.706
1.72
1.716
1.711
1.72
1.75
1.755
1.74
1.75
1.764
1.76
1.74
1.73
1.75
1.764
1.75
1.76
1.789
1.804
1.789
1.779
1.779
1.794
1.774
1.76
1.774
1.789
1.784
1.769
1.769
1.779
1.774
1.74
1.745
1.769
1.779
1.774
1.774
1.789
1.794
1.755
1.74
1.755
1.755
1.745
1.73
1.74
1.755
1.73
1.706
1.72
1.735
1.725
1.706
1.696
1.701
1.681
1.642
1.642
1.657
1.652
1.642
1.642
1.662
1.681
1.657
1.652
1.672
1.681
1.672
1.657
1.652
1.657
1.628
1.598
1.603
1.623
1.623
1.618
1.623
1.652
1.657
1.632
1.637
1.657
1.657
1.642
1.637
1.647
1.652
1.628
1.623
1.647
1.657
1.642
1.628
1.632
1.642
1.628
1.608
1.628
1.647
1.642
1.628
1.632
1.657
1.662
1.632
1.637
1.652
1.647
1.637
1.628
1.647
1.657
1.632
1.628
1.652
1.667
1.657
1.642
1.642
1.652
1.632
1.613
1.632
1.652
1.652
1.652
1.662
1.691
1.686
1.657
1.652
1.667
1.662
1.652
1.652
1.672
1.686
1.657
1.647
1.662
1.667
1.652
1.637
1.642
1.662
1.652
1.642
1.667
1.691
1.686
1.681
1.681
1.696
1.696
1.667
1.676
1.696
1.701
1.686
1.676
1.691
1.701
1.681
1.676
1.696
1.711
1.706
1.696
1.706
1.716
1.686
1.662
1.672
1.686
1.681
1.672
1.672
1.691
1.686
1.652
1.652
1.662
1.657
1.647
1.637
1.647
1.657
1.628
1.623
1.647
1.657
1.647
1.632
1.642
1.657
1.642
1.623
1.642
1.662
1.652
1.642
1.637
1.652
1.647
1.623
1.632
1.652
1.657
1.647
1.642
1.657
1.667
1.637
1.623
1.642
1.652
1.647
1.637
1.642
1.657
1.642
1.628
1.642
1.657
1.647
1.628
1.618
1.628
1.623
1.593
1.603
1.623
1.628
1.613
1.608
1.628
1.642
1.628
1.632
1.662
1.681
1.681
1.681
1.696
1.716
1.701
1.676
1.686
1.701
1.691
1.672
1.657
1.647
1.618
1.564
1.549
1.549
1.535
1.51
1.5
1.515
1.535
1.51
1.51
1.549
1.579
1.593
1.603
1.628
1.662
1.657
1.642
1.657
1.676
1.667
1.652
1.647
1.662
1.662
1.642
1.652
1.681
1.686
1.676
1.676
1.696
1.706
1.676
1.667
1.686
1.686
1.676
1.662
1.662
1.681
1.667
1.652
1.667
1.686
1.676
1.667
1.667
1.686
1.686
1.657
1.662
1.686
1.686
1.672
1.672
1.686
1.701
1.681
1.672
1.691
1.701
1.696
1.691
1.701
1.72
1.706
1.691
1.706
1.716
1.706
1.696
1.691
1.706
1.701
1.676
1.686
1.72
1.73
1.72
1.716
1.725
1.735
1.706
1.696
1.716
1.725
1.72
1.72
1.74
1.76
1.745
1.725
1.74
1.755
1.75
1.74
1.735
1.745
1.735
1.716
1.73
1.76
1.764
1.75
1.745
1.76
1.769
1.74
1.725
1.735
1.74
1.73
1.725
1.74
1.755
1.74
1.716
1.725
1.74
1.73
1.716
1.706
1.711
1.701
1.672
1.681
1.701
1.696
1.676
1.662
1.676
1.676
1.642
1.628
1.642
1.647
1.637
1.623
1.623
1.642
1.628
1.608
1.618
1.628
1.613
1.598
1.593
1.608
1.603
1.574
1.579
1.603
1.608
1.608
1.608
1.623
1.628
1.598
1.584
1.598
1.603
1.588
1.574
1.579
1.593
1.574
1.559
1.584
1.608
1.608
1.593
1.584
1.603
1.598
1.574
1.584
1.613
1.623
1.618
1.603
1.603
1.603
1.574
1.559
1.579
1.588
1.579
1.574
1.588
1.618
1.608
1.588
1.608
1.618
1.613
1.598
1.598
1.613
1.608
1.569
1.564
1.579
1.584
1.574
1.574
1.603
1.623
1.603
1.598
1.613
1.613
1.598
1.584
1.588
1.603
1.588
1.579
1.608
1.628
1.623
1.618
1.618
1.628
1.623
1.588
1.588
1.613
1.623
1.618
1.613
1.628
1.637
1.608
1.598
1.618
1.623
1.613
1.603
1.613
1.632
1.618
1.593
1.603
1.628
1.628
1.623
1.628
1.647
1.652
1.623
1.632
1.652
1.647
1.637
1.623
1.632
1.642
1.618
1.613
1.637
1.642
1.628
1.618
1.632
1.657
1.647
1.628
1.637
1.647
1.637
1.613
1.598
1.598
1.584
1.549
1.559
1.593
1.608
1.613
1.618
1.637
1.652
1.623
1.608
1.623
1.628
1.613
1.608
1.618
1.642
1.632
1.618
1.632
1.642
1.623
1.608
1.608
1.628
1.632
1.613
1.628
1.652
1.652
1.642
1.628
1.637
1.637
1.613
1.608
1.637
1.662
1.672
1.672
1.686
1.696
1.672
1.642
1.652
1.667
1.657
1.652
1.657
1.681
1.686
1.667
1.676
1.701
1.711
1.711
1.711
1.725
1.735
1.711
1.711
1.735
1.74
1.73
1.706
1.701
1.701
1.662
1.618
1.603
1.593
1.569
1.54
1.525
1.535
1.535
1.52
1.544
1.584
1.613
1.623
1.642
1.672
1.696
1.681
1.681
1.706
1.716
1.706
1.696
1.711
1.73
1.72
1.701
1.716
1.735
1.72
1.701
1.691
1.706
1.701
1.676
1.681
1.711
1.72
1.72
1.725
1.74
1.75
1.72
1.701
1.711
1.716
1.701
1.691
1.701
1.725
1.72
1.701
1.72
1.74
1.74
1.735
1.73
1.74
1.735
1.711
1.72
1.755
1.764
1.76
1.75
1.76
1.764
1.735
1.725
1.74
1.745
1.73
1.725
1.74
1.764
1.75
1.725
1.735
1.75
1.74
1.73
1.73
1.755
1.755
1.735
1.745
1.769
1.769
1.76
1.76
1.784
1.804
1.789
1.779
1.808
1.818
1.808
1.799
1.794
1.799
1.779
1.75
1.764
1.784
1.784
1.774
1.769
1.784
1.784
1.76
1.764
1.789
1.789
1.779
1.774
1.794
1.804
1.774
1.76
1.774
1.774
1.76
1.745
1.745
1.755
1.735
1.716
1.73
1.745
1.74
1.725
1.716
1.725
1.72
1.686
1.676
1.681
1.672
1.652
1.647
1.667
1.681
1.662
1.667
1.691
1.706
1.696
1.681
1.676
1.681
1.657
1.628
1.632
1.647
1.642
1.632
1.632
1.652
1.642
1.608
1.603
1.628
1.632
1.628
1.628
1.642
1.657
1.642
1.637
1.652
1.652
1.632
1.618
1.623
1.642
1.623
1.608
1.628
1.657
1.662
1.657
1.657
1.667
1.662
1.632
1.632
1.652
1.652
1.642
1.637
1.647
1.657
1.628
1.613
1.632
1.637
1.628
1.613
1.618
1.642
1.632
1.623
1.637
1.652
1.642
1.637
1.642
1.662
1.662
1.632
1.637
1.652
1.647
1.637
1.623
1.637
1.647
1.628
1.623
1.652
1.667
1.657
1.652
1.657
1.672
1.652
1.618
1.628
1.637
1.632
1.618
1.613
1.628
1.628
1.598
1.598
1.628
1.628
1.618
1.613
1.628
1.642
1.618
1.613
1.642
1.662
1.657
1.652
1.657
1.672
1.657
1.632
1.647
1.667
1.662
1.647
1.652
1.676
1.681
1.657
1.662
1.681
1.676
1.672
1.667
1.681
1.696
1.662
1.642
1.652
1.652
1.632
1.613
1.608
1.618
1.603
1.588
1.613
1.637
1.637
1.632
1.628
1.642
1.637
1.608
1.608
1.632
1.628
1.618
1.608
1.618
1.628
1.603
1.593
1.623
1.637
1.628
1.618
1.628
1.647
1.632
1.603
1.608
1.623
1.623
1.613
1.618
1.642
1.642
1.613
1.618
1.632
1.632
1.618
1.613
1.623
1.632
1.603
1.593
1.613
1.623
1.608
1.603
1.618
1.652
1.657
1.662
1.691
1.716
1.706
1.691
1.686
1.691
1.672
1.628
1.613
1.623
1.603
1.574
1.544
1.535
1.52
1.481
1.461
1.486
1.5
1.505
1.515
1.544
1.579
1.588
1.584
1.613
1.637
1.637
1.632
1.632
1.652
1.657
1.637
1.647
1.676
1.676
1.667
1.657
1.672
1.681
1.652
1.647
1.672
1.686
1.676
1.667
1.672
1.681
1.662
1.637
1.657
1.676
1.676
1.676
1.681
1.706
1.711
1.681
1.676
1.686
1.676
1.652
1.642
1.662
1.676
1.657
1.657
1.681
1.696
1.686
1.676
1.681
1.696
1.676
1.647
1.657
1.672
1.672
1.662
1.667
1.686
1.681
1.652
1.657
1.681
1.686
1.681
1.676
1.691
1.696
1.672
1.667
1.696
1.706
1.691
1.676
1.681
1.696
1.676
1.662
1.672
1.681
1.672
1.667
1.681
1.711
1.725
1.711
1.73
1.769
1.774
1.76
1.745
1.74
1.74
1.701
1.681
1.701
1.716
1.711
1.706
1.716
1.735
1.72
1.696
1.706
1.716
1.706
1.691
1.691
1.701
1.696
1.662
1.662
1.676
1.672
1.657
1.652
1.667
1.676
1.647
1.632
1.652
1.662
1.647
1.632
1.632
1.652
1.642
1.623
1.628
1.632
1.618
1.608
1.598
1.598
1.584
1.544
1.544
1.569
1.574
1.569
1.574
1.603
1.623
1.603
1.598
1.618
1.628
1.618
1.603
1.608
1.618
1.603
1.584
1.598
1.613
1.603
1.584
1.584
1.603
1.603
1.579
1.588
1.608
1.618
1.613
1.608
1.628
1.637
1.618
1.613
1.637
1.652
1.642
1.628
1.628
1.632
1.608
1.579
1.593
1.613
1.613
1.603
1.603
1.628
1.637
1.613
1.618
1.637
1.628
1.613
1.608
1.623
1.632
1.608
1.603
1.628
1.647
1.642
1.628
1.628
1.642
1.623
1.593
1.608
1.632
1.628
1.618
1.618
1.637
1.637
1.603
1.603
1.628
1.628
1.623
1.618
1.642
1.657
1.632
1.623
1.637
1.647
1.632
1.618
1.623
1.637
1.628
1.603
1.623
1.637
1.637
1.628
1.632
1.657
1.662
1.632
1.632
1.657
1.657
1.642
1.628
1.632
1.642
1.618
1.613
1.637
1.657
1.657
1.657
1.667
1.686
1.672
1.652
1.672
1.691
1.681
1.662
1.657
1.672
1.662
1.623
1.618
1.623
1.613
1.598
1.588
1.608
1.623
1.603
1.598
1.623
1.637
1.623
1.608
1.608
1.618
1.603
1.588
1.613
1.632
1.628
1.613
1.608
1.623
1.618
1.593
1.598
1.618
1.623
1.613
1.613
1.632
1.642
1.613
1.603
1.623
1.632
1.628
1.623
1.628
1.642
1.623
1.598
1.618
1.642
1.637
1.628
1.632
1.652
1.652
1.618
1.613
1.628
1.628
1.628
1.628
1.657
1.681
1.676
1.681
1.711
1.725
1.72
1.711
1.706
1.701
1.662
1.618
1.608
1.603
1.574
1.54
1.525
1.525
1.51
1.476
1.476
1.496
1.5
1.51
1.525
1.564
1.598
1.598
1.618
1.662
1.686
1.681
1.672
1.676
1.686
1.662
1.637
1.662
1.686
1.681
1.662
1.657
1.672
1.676
1.657
1.662
1.681
1.686
1.681
1.686
1.706
1.711
1.686
1.667
1.681
1.686
1.676
1.672
1.686
1.706
1.696
1.676
1.691
1.706
1.701
1.686
1.686
1.706
1.711
1.686
1.691
1.711
1.72
1.711
1.701
1.711
1.72
1.696
1.686
1.706
1.72
1.706
1.696
1.706
1.725
1.716
1.691
1.706
1.725
1.72
1.716
1.72
1.74
1.74
1.716
1.725
1.745
1.75
1.735
1.725
1.73
1.74
1.716
1.711
1.74
1.75
1.745
1.74
1.75
1.764
1.75
1.73
1.745
1.764
1.76
1.755
1.755
1.769
1.769
1.745
1.75
1.764
1.769
1.76
1.76
1.769
1.779
1.75
1.74
1.755
1.76
1.75
1.74
1.75
1.764
1.75
1.73
1.74
1.75
1.735
1.716
1.706
1.711
1.696
1.662
1.662
1.681
1.686
1.676
1.672
1.686
1.696
1.667
1.652
1.667
1.667
1.642
1.628
1.637
1.657
1.647
1.628
1.637
1.652
1.642
1.628
1.623
1.632
1.632
1.608
1.618
1.637
1.637
1.628
1.623
1.632
1.642
1.618
1.613
1.637
1.652
1.647
1.642
1.647
1.657
1.642
1.618
1.623
1.637
1.637
1.632
1.637
1.662
1.667
1.642
1.642
1.662
1.662
1.642
1.628
1.637
1.647
1.628
1.632
1.657
1.662
1.652
1.642
1.652
1.667
1.647
1.623
1.632
1.647
1.642
1.632
1.628
1.642
1.642
1.613
1.623
1.642
1.647
1.642
1.642
1.657
1.667
1.642
1.637
1.652
1.657
1.637
1.623
1.623
1.637
1.623
1.608
1.628
1.657
1.657
1.647
1.647
1.662
1.652
1.618
1.613
1.628
1.632
1.623
1.623
1.642
1.652
1.628
1.618
1.637
1.647
1.637
1.623
1.628
1.652
1.637
1.623
1.642
1.662
1.652
1.632
1.628
1.642
1.637
1.608
1.613
1.632
1.637
1.632
1.628
1.642
1.657
1.632
1.623
1.647
1.662
1.652
1.642
1.642
1.652
1.642
1.628
1.647
1.667
1.667
1.662
1.667
1.686
1.686
1.657
1.657
1.676
1.672
1.657
1.647
1.657
1.667
1.632
1.618
1.628
1.632
1.623
1.613
1.628
1.647
1.632
1.613
1.623
1.632
1.623
1.613
1.608
1.628
1.628
1.608
1.623
1.647
1.652
1.637
1.623
1.628
1.632
1.603
1.593
1.613
1.618
1.613
1.603
1.613
1.623
1.603
1.588
1.613
1.632
1.632
1.628
1.628
1.642
1.637
1.613
1.618
1.637
1.628
1.613
1.603
1.618
1.628
1.603
1.593
1.618
1.628
1.632
1.632
1.657
1.676
1.672
1.662
1.686
1.711
1.711
1.701
1.706
1.716
1.706
1.662
1.642
1.642
1.618
1.579
1.544
1.525
1.515
1.471
1.452
1.466
1.481
1.486
1.496
1.53
1.574
1.584
1.584
1.623
1.652
1.652
1.647
1.647
1.667
1.672
1.652
1.667
1.691
1.696
1.681
1.667
1.676
1.676
1.647
1.637
1.662
1.676
1.672
1.667
1.681
1.706
1.691
1.667
1.676
1.686
1.681
1.667
1.672
1.696
1.706
1.681
1.686
1.706
1.701
1.691
1.681
1.691
1.696
1.667
1.662
1.691
1.706
1.706
1.696
1.711
1.725
1.716
1.701
1.725
1.745
1.745
1.735
1.735
1.745
1.735
1.696
1.691
1.706
1.706
1.701
1.701
1.725
1.755
1.74
1.74
1.764
1.774
1.764
1.755
1.76
1.774
1.76
1.73
1.745
1.76
1.745
1.725
1.716
1.725
1.725
1.706
1.716
1.745
1.76
1.755
1.75
1.755
1.764
1.735
1.725
1.74
1.76
1.76
1.764
1.769
1.784
1.769
1.745
1.755
1.764
1.755
1.74
1.745
1.769
1.769
1.74
1.74
1.755
1.75
1.735
1.72
1.725
1.73
1.706
1.706
1.73
1.74
1.735
1.725
1.73
1.735
1.706
1.672
1.672
1.681
1.667
1.652
1.657
1.681
1.686
1.662
1.672
1.691
1.691
1.672
1.652
1.657
1.662
1.637
1.628
1.657
1.672
1.667
1.657
1.667
1.686
1.667
1.647
1.657
1.672
1.662
1.652
1.652
1.676
1.681
1.662
1.662
1.681
1.681
1.662
1.647
1.662
1.672
1.642
1.632
1.652
1.672
1.667
1.662
1.672
1.686
1.662
1.637
1.642
1.662
1.657
1.652
1.657
1.686
1.691
1.672
1.686
1.706
1.696
1.672
1.657
1.667
1.676
1.647
1.642
1.662
1.672
1.676
1.676
1.691
1.711
1.696
1.676
1.691
1.706
1.696
1.672
1.667
1.681
1.681
1.657
1.667
1.691
1.696
1.686
1.681
1.696
1.701
1.676
1.662
1.676
1.686
1.672
1.662
1.672
1.691
1.672
1.652
1.667
1.686
1.681
1.672
1.672
1.686
1.691
1.667
1.676
1.701
1.701
1.691
1.686
1.696
1.706
1.681
1.681
1.701
1.711
1.706
1.696
1.706
1.725
1.711
1.691
1.701
1.716
1.701
1.686
1.676
1.681
1.672
1.637
1.642
1.672
1.681
1.676
1.676
1.691
1.696
1.662
1.642
1.652
1.657
1.632
1.613
1.632
1.657
1.647
1.628
1.647
1.662
1.647
1.632
1.628
1.642
1.637
1.608
1.618
1.642
1.652
1.642
1.637
1.652
1.652
1.618
1.613
1.632
1.642
1.637
1.628
1.637
1.662
1.647
1.623
1.632
1.637
1.628
1.618
1.628
1.657
1.662
1.642
1.657
1.681
1.681
1.672
1.657
1.672
1.691
1.676
1.681
1.711
1.725
1.716
1.696
1.681
1.667
1.618
1.564
1.554
1.549
1.525
1.496
1.491
1.51
1.51
1.496
1.515
1.559
1.579
1.584
1.593
1.623
1.642
1.628
1.628
1.662
1.676
1.676
1.672
1.681
1.701
1.691
1.676
1.691
1.701
1.691
1.672
1.672
1.691
1.686
1.657
1.657
1.676
1.681
1.676
1.672
1.691
1.701
1.676
1.667
1.686
1.696
1.686
1.681
1.696
1.725
1.716
1.701
1.72
1.735
1.725
1.706
1.701
1.711
1.701
1.676
1.686
1.716
1.725
1.72
1.72
1.735
1.745
1.706
1.681
1.696
1.706
1.701
1.691
1.706
1.725
1.716
1.701
1.725
1.75
1.75
1.74
1.74
1.755
1.75
1.725
1.73
1.745
1.74
1.725
1.716
1.725
1.745
1.735
1.74
1.774
1.789
1.789
1.784
1.794
1.808
1.784
1.755
1.764
1.774
1.764
1.755
1.755
1.774
1.774
1.75
1.755
1.774
1.774
1.76
1.745
1.75
1.75
1.72
1.711
1.725
1.735
1.73
1.73
1.745
1.764
1.745
1.716
1.716
1.72
1.706
1.686
1.681
1.696
1.691
1.667
1.681
1.706
1.701
1.681
1.662
1.667
1.662
1.623
1.613
1.632
1.647
1.642
1.637
1.652
1.672
1.652
1.628
1.642
1.652
1.637
1.628
1.632
1.652
1.652
1.628
1.637
1.657
1.657
1.637
1.623
1.632
1.632
1.603
1.598
1.623
1.637
1.628
1.618
1.632
1.652
1.642
1.628
1.642
1.652
1.647
1.637
1.642
1.657
1.652
1.623
1.628
1.652
1.652
1.642
1.637
1.652
1.667
1.647
1.642
1.667
1.681
1.676
1.667
1.672
1.681
1.657
1.628
1.642
1.657
1.647
1.637
1.647
1.667
1.667
1.647
1.652
1.672
1.662
1.652
1.642
1.662
1.667
1.642
1.642
1.672
1.681
1.672
1.657
1.662
1.672
1.647
1.623
1.637
1.657
1.652
1.652
1.657
1.681
1.676
1.647
1.647
1.667
1.667
1.662
1.662
1.676
1.691
1.667
1.662
1.681
1.691
1.681
1.667
1.667
1.676
1.652
1.628
1.642
1.652
1.642
1.628
1.623
1.642
1.637
1.613
1.623
1.647
1.642
1.632
1.623
1.632
1.642
1.613
1.603
1.618
1.628
1.618
1.603
1.613
1.632
1.618
1.598
1.613
1.623
1.618
1.603
1.603
1.623
1.623
1.598
1.608
1.632
1.632
1.623
1.613
1.628
1.632
1.608
1.603
1.628
1.642
1.637
1.623
1.628
1.637
1.613
1.598
1.623
1.642
1.642
1.642
1.657
1.691
1.701
1.681
1.691
1.711
1.706
1.686
1.676
1.681
1.676
1.632
1.603
1.598
1.574
1.535
1.5
1.486
1.486
1.457
1.437
1.466
1.5
1.51
1.52
1.549
1.598
1.623
1.618
1.642
1.676
1.681
1.667
1.657
1.662
1.667
1.637
1.632
1.662
1.681
1.681
1.676
1.686
1.701
1.681
1.657
1.672
1.686
1.681
1.672
1.676
1.696
1.696
1.667
1.676
1.696
1.696
1.681
1.676
1.691
1.701
1.672
1.667
1.691
1.701
1.691
1.686
1.706
1.725
1.711
1.686
1.696
1.706
1.701
1.691
1.691
1.706
1.701
1.676
1.691
1.716
1.72
1.706
1.696
1.706
1.706
1.681
1.676
1.706
1.716
1.706
1.701
1.706
1.716
1.691
1.672
1.686
1.706
1.701
1.701
1.711
1.735
1.74
1.72
1.725
1.74
1.74
1.73
1.725
1.74
1.75
1.716
1.706
1.72
1.725
1.72
1.711
1.72
1.74
1.735
1.72
1.74
1.755
1.74
1.725
1.725
1.74
1.73
1.701
1.706
1.72
1.716
1.706
1.701
1.716
1.72
1.691
1.681
1.691
1.696
1.681
1.672
1.672
1.676
1.657
1.647
1.667
1.681
1.667
1.647
1.637
1.647
1.632
1.598
1.603
1.623
1.632
1.628
1.623
1.637
1.642
1.613
1.608
1.632
1.642
1.632
1.623
1.632
1.647
1.628
1.608
1.618
1.632
1.623
1.608
1.613
1.642
1.642
1.618
1.618
1.632
1.623
1.613
1.603
1.618
1.628
1.613
1.618
1.642
1.647
1.637
1.623
1.628
1.637
1.618
1.603
1.628
1.647
1.647
1.642
1.642
1.662
1.652
1.623
1.623
1.647
1.647
1.637
1.637
1.652
1.662
1.632
1.637
1.657
1.662
1.652
1.642
1.652
1.676
1.657
1.642
1.667
1.686
1.676
1.662
1.657
1.667
1.657
1.628
1.632
1.647
1.647
1.632
1.623
1.637
1.642
1.613
1.603
1.623
1.637
1.637
1.642
1.662
1.676
1.652
1.632
1.652
1.662
1.652
1.637
1.632
1.652
1.652
1.642
1.657
1.676
1.676
1.667
1.657
1.667
1.662
1.632
1.628
1.642
1.647
1.637
1.628
1.632
1.647
1.623
1.603
1.618
1.628
1.623
1.613
1.623
1.647
1.647
1.628
1.632
1.642
1.628
1.603
1.588
1.598
1.608
1.588
1.593
1.628
1.642
1.642
1.632
1.637
1.642
1.608
1.584
1.593
1.603
1.598
1.588
1.593
1.618
1.618
1.593
1.608
1.628
1.628
1.618
1.613
1.628
1.632
1.603
1.598
1.613
1.618
1.613
1.603
1.613
1.632
1.613
1.598
1.623
1.642
1.637
1.628
1.632
1.662
1.667
1.662
1.686
1.716
1.725
1.716
1.706
1.711
1.696
1.642
1.608
1.598
1.579
1.544
1.51
1.5
1.505
1.486
1.466
1.481
1.5
1.505
1.52
1.544
1.588
1.598
1.584
1.603
1.632
1.637
1.637
1.637
1.652
1.652
1.623
1.628
1.662
1.676
1.667
1.662
1.672
1.691
1.676
1.662
1.676
1.686
1.676
1.662
1.662
1.681
1.681
1.657
1.672
1.696
1.696
1.686
1.686
1.701
1.706
1.681
1.672
1.701
1.706
1.691
1.681
1.686
1.706
1.691
1.672
1.691
1.706
1.701
1.696
1.701
1.716
1.706
1.681
1.691
1.716
1.716
1.711
1.711
1.73
1.74
1.711
1.711
1.735
1.74
1.73
1.725
1.735
1.755
1.735
1.72
1.735
1.75
1.75
1.74
1.75
1.769
1.76
1.73
1.735
1.75
1.75
1.735
1.74
1.764
1.779
1.764
1.769
1.794
1.799
1.789
1.769
1.769
1.779
1.755
1.74
1.764
1.779
1.774
1.76
1.76
1.774
1.774
1.75
1.764
1.784
1.779
1.764
1.755
1.769
1.769
1.735
1.72
1.73
1.73
1.72
1.72
1.74
1.76
1.74
1.72
1.735
1.74
1.725
1.701
1.691
1.696
1.676
1.647
1.657
1.681
1.686
1.681
1.672
1.676
1.681
1.652
1.642
1.662
1.662
1.652
1.652
1.662
1.681
1.657
1.637
1.652
1.662
1.652
1.637
1.637
1.657
1.662
1.647
1.667
1.696
1.696
1.686
1.681
1.691
1.686
1.647
1.632
1.647
1.647
1.642
1.637
1.652
1.672
1.657
1.647
1.672
1.691
1.681
1.667
1.667
1.681
1.672
1.647
1.657
1.681
1.681
1.672
1.672
1.691
1.696
1.667
1.667
1.681
1.686
1.676
1.667
1.672
1.686
1.667
1.652
1.672
1.691
1.691
1.681
1.686
1.706
1.701
1.672
1.676
1.686
1.676
1.662
1.652
1.667
1.672
1.647
1.652
1.681
1.696
1.681
1.667
1.676
1.691
1.672
1.652
1.657
1.667
1.662
1.647
1.647
1.667
1.672
1.657
1.676
1.711
1.72
1.716
1.711
1.725
1.725
1.691
1.681
1.701
1.716
1.711
1.706
1.72
1.735
1.711
1.701
1.716
1.725
1.716
1.701
1.701
1.72
1.716
1.686
1.686
1.686
1.672
1.652
1.652
1.667
1.676
1.642
1.642
1.672
1.686
1.681
1.667
1.672
1.681
1.657
1.632
1.652
1.672
1.676
1.676
1.681
1.701
1.696
1.672
1.672
1.681
1.662
1.647
1.632
1.642
1.652
1.628
1.632
1.662
1.676
1.676
1.672
1.681
1.696
1.672
1.647
1.657
1.667
1.662
1.652
1.662
1.686
1.681
1.657
1.662
1.676
1.672
1.657
1.652
1.667
1.676
1.657
1.657
1.681
1.696
1.696
1.691
1.706
1.725
1.716
1.716
1.745
1.769
1.764
1.75
1.74
1.745
1.716
1.667
1.647
1.637
1.603
1.564
1.535
1.525
1.515
1.481
1.486
1.52
1.549
1.569
1.588
1.632
1.676
1.676
1.672
1.691
1.701
1.691
1.686
1.691
1.716
1.716
1.696
1.706
1.725
1.725
1.716
1.706
1.716
1.716
1.686
1.686
1.711
1.72
1.711
1.701
1.711
1.725
1.706
1.696
1.72
1.735
1.73
1.725
1.735
1.76
1.755
1.725
1.73
1.745
1.74
1.725
1.716
1.73
1.735
1.711
1.711
1.73
1.73
1.72
1.711
1.725
1.745
1.735
1.735
1.764
1.784
1.779
1.764
1.76
1.764
1.745
1.711
1.716
1.74
1.75
1.75
1.75
1.76
1.76
1.73
1.73
1.76
1.769
1.769
1.769
1.784
1.804
1.784
1.764
1.779
1.784
1.769
1.76
1.774
1.799
1.804
1.784
1.804
1.818
1.813
1.804
1.799
1.813
1.813
1.784
1.779
1.799
1.804
1.789
1.779
1.789
1.804
1.784
1.769
1.789
1.799
1.789
1.774
1.774
1.784
1.764
1.735
1.74
1.755
1.75
1.735
1.73
1.74
1.74
1.716
1.711
1.725
1.73
1.711
1.696
1.701
1.711
1.681
1.657
1.672
1.686
1.676
1.662
1.667
1.686
1.681
1.657
1.667
1.686
1.686
1.676
1.667
1.681
1.672
1.632
1.628
1.652
1.662
1.657
1.652
1.667
1.681
1.657
1.637
1.652
1.662
1.657
1.642
1.647
1.672
1.662
1.637
1.652
1.676
1.676
1.662
1.657
1.672
1.676
1.647
1.647
1.667
1.681
1.672
1.667
1.676
1.691
1.672
1.657
1.672
1.681
1.662
1.647
1.657
1.681
1.681
1.657
1.672
1.696
1.691
1.681
1.672
1.686
1.696
1.662
1.657
1.676
1.676
1.667
1.657
1.662
1.672
1.652
1.642
1.657
1.667
1.662
1.652
1.662
1.691
1.691
1.672
1.681
1.701
1.696
1.681
1.672
1.686
1.686
1.657
1.657
1.681
1.691
1.686
1.676
1.686
1.696
1.672
1.652
1.667
1.681
1.672
1.662
1.657
1.667
1.647
1.618
1.637
1.662
1.662
1.662
1.667
1.691
1.701
1.676
1.672
1.686
1.681
1.657
1.642
1.652
1.667
1.657
1.652
1.681
1.701
1.701
1.696
1.701
1.711
1.691
1.657
1.657
1.672
1.672
1.672
1.681
1.706
1.716
1.696
1.701
1.72
1.72
1.701
1.686
1.696
1.711
1.691
1.681
1.701
1.716
1.701
1.681
1.672
1.676
1.657
1.623
1.632
1.652
1.647
1.642
1.652
1.681
1.696
1.662
1.652
1.672
1.672
1.662
1.647
1.657
1.667
1.647
1.632
1.652
1.667
1.657
1.642
1.642
1.662
1.657
1.632
1.647
1.672
1.672
1.662
1.662
1.681
1.681
1.652
1.652
1.672
1.676
1.662
1.642
1.647
1.662
1.637
1.623
1.647
1.662
1.652
1.647
1.652
1.676
1.672
1.652
1.667
1.686
1.681
1.681
1.686
1.711
1.72
1.701
1.706
1.735
1.745
1.735
1.72
1.72
1.72
1.676
1.632
1.618
1.603
1.569
1.535
1.52
1.525
1.515
1.491
1.515
1.549
1.569
1.579
1.598
1.632
1.652
1.637
1.652
1.686
1.701
1.696
1.686
1.701
1.716
1.691
1.672
1.691
1.701
1.696
1.686
1.691
1.716
1.716
1.696
1.711
1.725
1.716
1.701
1.691
1.706
1.716
1.691
1.696
1.72
1.725
1.716
1.711
1.72
1.73
1.706
1.691
1.711
1.725
1.72
1.716
1.72
1.74
1.725
1.696
1.706
1.72
1.72
1.711
1.716
1.73
1.735
1.711
1.716
1.74
1.74
1.73
1.725
1.74
1.76
1.735
1.716
1.735
1.75
1.745
1.735
1.735
1.755
1.745
1.72
1.73
1.75
1.75
1.74
1.74
1.755
1.764
1.745
1.755
1.784
1.789
1.784
1.774
1.789
1.794
1.764
1.75
1.769
1.789
1.789
1.779
1.794
1.818
1.813
1.789
1.794
1.799
1.784
1.764
1.76
1.774
1.779
1.75
1.755
1.779
1.779
1.764
1.75
1.755
1.76
1.73
1.716
1.735
1.75
1.745
1.73
1.73
1.735
1.72
1.691
1.701
1.716
1.711
1.696
1.691
1.706
1.706
1.672
1.662
1.672
1.667
1.652
1.637
1.647
1.657
1.632
1.623
1.642
1.652
1.642
1.628
1.632
1.657
1.652
1.632
1.647
1.667
1.662
1.647
1.637
1.642
1.637
1.608
1.613
1.642
1.652
1.652
1.652
1.667
1.681
1.657
1.637
1.647
1.652
1.642
1.632
1.637
1.647
1.637
1.613
1.628
1.642
1.637
1.628
1.628
1.652
1.652
1.623
1.623
1.642
1.647
1.637
1.632
1.647
1.667
1.642
1.632
1.652
1.672
1.662
1.647
1.637
1.647
1.632
1.608
1.618
1.642
1.642
1.642
1.642
1.672
1.681
1.652
1.647
1.657
1.647
1.623
1.608
1.618
1.632
1.618
1.608
1.637
1.662
1.657
1.647
1.652
1.667
1.652
1.628
1.632
1.652
1.642
1.628
1.628
1.637
1.637
1.613
1.618
1.642
1.647
1.642
1.637
1.657
1.672
1.647
1.628
1.637
1.642
1.632
1.618
1.623
1.642
1.632
1.613
1.628
1.652
1.657
1.647
1.642
1.652
1.652
1.623
1.618
1.637
1.632
1.623
1.613
1.623
1.642
1.623
1.618
1.647
1.662
1.657
1.647
1.652
1.676
1.662
1.632
1.637
1.652
1.647
1.642
1.647
1.667
1.672
1.647
1.652
1.676
1.681
1.672
1.662
1.672
1.681
1.657
1.637
1.652
1.657
1.642
1.628
1.632
1.652
1.647
1.628
1.637
1.652
1.647
1.632
1.628
1.642
1.632
1.598
1.598
1.628
1.637
1.632
1.632
1.642
1.657
1.637
1.623
1.642
1.657
1.647
1.637
1.637
1.652
1.637
1.618
1.628
1.647
1.647
1.637
1.628
1.642
1.637
1.608
1.613
1.632
1.637
1.628
1.618
1.637
1.652
1.632
1.618
1.637
1.652
1.642
1.632
1.637
1.662
1.657
1.637
1.657
1.676
1.676
1.667
1.667
1.691
1.706
1.686
1.701
1.73
1.735
1.72
1.701
1.691
1.681
1.628
1.584
1.569
1.559
1.54
1.515
1.51
1.515
1.496
1.471
1.491
1.525
1.54
1.559
1.584
1.632
1.667
1.662
1.681
1.711
1.706
1.691
1.686
1.696
1.706
1.676
1.657
1.681
1.701
1.691
1.681
1.691
1.711
1.706
1.681
1.701
1.716
1.711
1.691
1.686
1.706
1.706
1.676
1.681
1.696
1.696
1.691
1.686
1.701
1.72
1.706
1.701
1.72
1.735
1.725
1.72
1.725
1.74
1.725
1.701
1.716
1.73
1.73
1.72
1.716
1.73
1.73
1.706
1.706
1.735
1.745
1.745
1.73
1.74
1.75
1.73
1.716
1.735
1.75
1.74
1.725
1.73
1.755
1.745
1.725
1.745
1.76
1.75
1.74
1.75
1.774
1.779
1.755
1.764
1.794
1.794
1.789
1.784
1.799
1.808
1.779
1.764
1.774
1.784
1.774
1.755
1.755
1.774
1.774
1.76
1.779
1.804
1.804
1.799
1.799
1.813
1.813
1.784
1.779
1.794
1.794
1.779
1.76
1.76
1.764
1.73
1.716
1.73
1.745
1.735
1.725
1.73
1.745
1.725
1.696
1.701
1.716
1.711
1.701
1.691
1.706
1.701
1.667
1.657
1.672
1.672
1.652
1.637
1.647
1.662
1.647
1.637
1.662
1.672
1.662
1.657
1.662
1.676
1.667
1.642
1.657
1.672
1.667
1.657
1.652
1.672
1.667
1.642
1.637
1.657
1.662
1.652
1.652
1.667
1.676
1.652
1.637
1.652
1.662
1.652
1.637
1.642
1.657
1.652
1.637
1.667
1.696
1.686
1.667
1.652
1.667
1.662
1.637
1.637
1.657
1.667
1.667
1.672
1.691
1.701
1.676
1.657
1.672
1.676
1.662
1.652
1.657
1.676
1.667
1.652
1.667
1.691
1.681
1.672
1.667
1.681
1.681
1.652
1.652
1.672
1.667
1.657
1.657
1.676
1.696
1.672
1.657
1.676
1.691
1.676
1.662
1.672
1.696
1.681
1.652
1.657
1.676
1.667
1.647
1.642
1.657
1.657
1.628
1.632
1.667
1.676
1.672
1.667
1.681
1.696
1.672
1.657
1.676
1.686
1.672
1.662
1.667
1.681
1.667
1.647
1.657
1.681
1.681
1.676
1.676
1.696
1.701
1.676
1.681
1.706
1.711
1.696
1.686
1.696
1.711
1.691
1.686
1.706
1.716
1.696
1.676
1.672
1.686
1.667
1.647
1.657
1.672
1.667
1.662
1.662
1.676
1.667
1.632
1.628
1.642
1.642
1.628
1.623
1.642
1.657
1.632
1.623
1.647
1.662
1.652
1.642
1.642
1.662
1.647
1.628
1.647
1.667
1.667
1.662
1.662
1.681
1.676
1.647
1.652
1.676
1.681
1.662
1.647
1.657
1.672
1.647
1.637
1.657
1.662
1.652
1.637
1.647
1.667
1.652
1.632
1.647
1.667
1.667
1.657
1.657
1.676
1.681
1.662
1.681
1.716
1.725
1.725
1.73
1.755
1.769
1.74
1.716
1.72
1.716
1.681
1.637
1.608
1.598
1.559
1.52
1.52
1.53
1.52
1.515
1.525
1.554
1.569
1.559
1.584
1.628
1.652
1.662
1.672
1.701
1.725
1.711
1.706
1.72
1.72
1.706
1.691
1.691
1.706
1.691
1.667
1.686
1.706
1.706
1.696
1.696
1.711
1.706
1.676
1.676
1.701
1.711
1.711
1.711
1.725
1.735
1.711
1.696
1.72
1.735
1.725
1.716
1.72
1.74
1.72
1.701
1.716
1.73
1.72
1.711
1.711
1.735
1.74
1.711
1.716
1.735
1.735
1.725
1.72
1.73
1.74
1.716
1.711
1.73
1.745
1.735
1.725
1.735
1.75
1.735
1.716
1.735
1.755
1.75
1.735
1.73
1.745
1.75
1.73
1.74
1.769
1.774
1.774
1.779
1.799
1.813
1.789
1.774
1.789
1.794
1.784
1.769
1.779
1.799
1.789
1.774
1.789
1.808
1.799
1.789
1.784
1.799
1.794
1.764
1.769
1.789
1.789
1.774
1.769
1.784
1.799
1.774
1.76
1.769
1.774
1.755
1.735
1.725
1.735
1.716
1.691
1.701
1.711
1.706
1.691
1.686
1.696
1.696
1.667
1.667
1.686
1.686
1.676
1.672
1.676
1.681
1.652
1.642
1.662
1.667
1.657
1.647
1.652
1.672
1.652
1.628
1.637
1.647
1.637
1.628
1.632
1.657
1.662
1.642
1.652
1.676
1.681
1.667
1.657
1.662
1.662
1.628
1.608
1.618
1.623
1.623
1.623
1.642
1.667
1.662
1.642
1.662
1.691
1.686
1.667
1.662
1.667
1.652
1.613
1.613
1.637
1.642
1.637
1.637
1.652
1.672
1.662
1.667
1.696
1.706
1.696
1.686
1.691
1.711
1.691
1.662
1.672
1.681
1.672
1.652
1.647
1.667
1.662
1.637
1.647
1.676
1.681
1.676
1.676
1.696
1.701
1.676
1.667
1.681
1.686
1.672
1.657
1.667
1.686
1.672
1.652
1.662
1.681
1.672
1.662
1.657
1.672
1.676
1.652
1.662
1.691
1.691
1.681
1.672
1.686
1.691
1.657
1.647
1.672
1.686
1.681
1.676
1.686
1.711
1.696
1.676
1.691
1.701
1.691
1.672
1.667
1.681
1.681
1.657
1.672
1.706
1.711
1.701
1.701
1.716
1.73
1.706
1.696
1.711
1.711
1.686
1.662
1.662
1.672
1.647
1.623
1.637
1.657
1.662
1.657
1.662
1.676
1.676
1.647
1.647
1.667
1.667
1.652
1.647
1.662
1.667
1.642
1.637
1.662
1.672
1.662
1.652
1.657
1.672
1.652
1.628
1.647
1.667
1.667
1.662
1.667
1.696
1.701
1.667
1.667
1.681
1.681
1.667
1.657
1.672
1.686
1.667
1.662
1.686
1.696
1.681
1.662
1.662
1.676
1.657
1.637
1.652
1.672
1.676
1.681
1.696
1.73
1.745
1.73
1.74
1.769
1.764
1.745
1.72
1.716
1.701
1.652
1.613
1.608
1.588
1.559
1.535
1.53
1.544
1.53
1.52
1.544
1.574
1.584
1.593
1.618
1.657
1.676
1.662
1.676
1.706
1.706
1.696
1.686
1.701
1.711
1.686
1.681
1.706
1.716
1.706
1.686
1.691
1.711
1.701
1.681
1.701
1.725
1.72
1.716
1.72
1.74
1.74
1.716
1.725
1.755
1.764
1.76
1.755
1.76
1.755
1.72
1.706
1.72
1.73
1.725
1.72
1.73
1.755
1.745
1.725
1.74
1.75
1.74
1.72
1.72
1.74
1.74
1.716
1.72
1.745
1.74
1.73
1.72
1.73
1.75
1.73
1.73
1.755
1.764
1.755
1.75
1.76
1.779
1.769
1.755
1.779
1.799
1.804
1.789
1.789
1.799
1.789
1.75
1.75
1.774
1.774
1.774
1.774
1.799
1.813
1.789
1.784
1.804
1.813
1.804
1.794
1.799
1.813
1.789
1.764
1.774
1.794
1.789
1.779
1.784
1.808
1.808
1.779
1.784
1.804
1.804
1.794
1.784
1.799
1.799
1.769
1.76
1.774
1.779
1.769
1.76
1.76
1.774
1.75
1.72
1.73
1.74
1.725
1.706
1.691
1.701
1.696
1.667
1.662
1.676
1.672
1.662
1.657
1.676
1.691
1.667
1.667
1.691
1.701
1.686
1.667
1.667
1.681
1.662
1.652
1.676
1.691
1.686
1.681
1.681
1.691
1.681
1.652
1.652
1.672
1.672
1.662
1.662
1.681
1.696
1.676
1.672
1.691
1.696
1.681
1.672
1.681
1.701
1.681
1.657
1.676
1.691
1.681
1.662
1.662
1.681
1.681
1.662
1.676
1.711
1.72
1.716
1.706
1.711
1.711
1.676
1.667
1.696
1.706
1.706
1.701
1.716
1.74
1.725
1.711
1.72
1.725
1.701
1.681
1.672
1.686
1.681
1.652
1.662
1.701
1.716
1.706
1.701
1.72
1.73
1.706
1.696
1.711
1.716
1.696
1.681
1.681
1.696
1.676
1.657
1.681
1.711
1.716
1.716
1.716
1.73
1.73
1.701
1.706
1.72
1.711
1.696
1.686
1.696
1.701
1.672
1.667
1.696
1.706
1.696
1.691
1.711
1.735
1.725
1.701
1.701
1.691
1.667
1.642
1.642
1.676
1.686
1.681
1.716
1.769
1.804
1.813
1.808
1.804
1.784
1.73
1.696
1.701
1.691
1.676
1.657
1.662
1.681
1.667
1.657
1.681
1.696
1.691
1.691
1.701
1.725
1.711
1.676
1.672
1.686
1.681
1.667
1.652
1.662
1.667
1.642
1.647
1.676
1.686
1.676
1.667
1.681
1.701
1.691
1.676
1.696
1.706
1.691
1.672
1.667
1.681
1.672
1.642
1.652
1.676
1.681
1.676
1.676
1.696
1.706
1.676
1.676
1.701
1.711
1.701
1.696
1.706
1.725
1.711
1.691
1.706
1.72
1.72
1.716
1.725
1.75
1.755
1.735
1.745
1.769
1.769
1.76
1.755
1.755
1.72
1.632
1.574
1.554
1.535
1.5
1.481
1.491
1.525
1.544
1.564
1.618
1.662
1.672
1.667
1.676
1.701
1.701
1.676
1.686
1.711
1.716
1.711
1.711
1.73
1.74
1.716
1.706
1.725
1.73
1.72
1.711
1.72
1.745
1.73
1.711
1.73
1.745
1.735
1.711
1.701
1.711
1.706
1.686
1.701
1.725
1.73
1.73
1.735
1.755
1.764
1.74
1.73
1.745
1.745
1.74
1.735
1.755
1.774
1.764
1.75
1.774
1.794
1.779
1.76
1.755
1.769
1.769
1.74
1.745
1.764
1.769
1.764
1.764
1.779
1.784
1.75
1.74
1.755
1.76
1.745
1.725
1.725
1.735
1.716
1.701
1.72
1.735
1.73
1.725
1.73
1.764
1.774
1.76
1.779
1.813
1.823
1.813
1.808
1.818
1.818
1.789
1.789
1.823
1.833
1.823
1.813
1.813
1.823
1.789
1.755
1.755
1.76
1.745
1.74
1.75
1.774
1.769
1.745
1.75
1.755
1.735
1.706
1.701
1.72
1.74
1.72
1.72
1.745
1.764
1.764
1.75
1.745
1.75
1.725
1.706
1.725
1.74
1.735
1.725
1.716
1.725
1.711
1.676
1.676
1.681
1.667
1.647
1.637
1.642
1.647
1.613
1.593
1.598
1.593
1.588
1.593
1.623
1.657
1.652
1.642
1.662
1.662
1.637
1.608
1.593
1.603
1.603
1.588
1.628
1.676
1.696
1.691
1.681
1.681
1.667
1.613
1.593
1.618
1.637
1.642
1.637
1.642
1.647
1.618
1.588
1.593
1.608
1.618
1.628
1.657
1.701
1.716
1.696
1.696
1.701
1.681
1.642
1.608
1.603
1.613
1.598
1.613
1.652
1.681
1.686
1.681
1.691
1.706
1.686
1.667
1.676
1.681
1.662
1.642
1.637
1.652
1.642
1.603
1.603
1.618
1.618
1.623
1.632
1.662
1.681
1.662
1.662
1.686
1.691
1.676
1.662
1.667
1.676
1.652
1.637
1.657
1.676
1.676
1.667
1.662
1.667
1.642
1.593
1.584
1.588
1.584
1.579
1.588
1.623
1.647
1.642
1.657
1.686
1.691
1.672
1.652
1.662
1.676
1.662
1.657
1.686
1.716
1.72
1.711
1.711
1.716
1.691
1.647
1.647
1.667
1.672
1.667
1.662
1.681
1.691
1.667
1.652
1.652
1.632
1.598
1.569
1.564
1.574
1.564
1.569
1.603
1.637
1.647
1.647
1.657
1.681
1.676
1.647
1.637
1.637
1.613
1.584
1.574
1.584
1.598
1.588
1.603
1.628
1.647
1.647
1.637
1.642
1.637
1.608
1.593
1.618
1.642
1.647
1.652
1.652
1.667
1.657
1.613
1.608
1.608
1.603
1.588
1.584
1.598
1.613
1.593
1.608
1.647
1.672
1.681
1.686
1.706
1.725
1.711
1.701
1.716
1.725
1.716
1.696
1.696
1.701
1.667
1.603
1.564
1.544
1.515
1.496
1.491
1.51
1.525
1.515
1.54
1.574
1.588
1.584
1.579
1.593
1.618
1.608
1.603
1.632
1.657
1.657
1.647
1.647
1.672
1.681
1.672
1.686
1.691
1.676
1.657
1.652
1.672
1.676
1.647
1.647
1.681
1.701
1.701
1.691
1.696
1.706
1.686
1.676
1.701
1.72
1.711
1.696
1.691
1.706
1.696
1.667
1.667
1.686
1.691
1.681
1.686
1.711
1.72
1.681
1.657
1.667
1.667
1.652
1.647
1.662
1.691
1.686
1.686
1.72
1.755
1.75
1.74
1.74
1.76
1.75
1.725
1.74
1.76
1.755
1.735
1.716
1.72
1.725
1.696
1.691
1.716
1.725
1.72
1.716
1.725
1.75
1.735
1.72
1.745
1.769
1.784
1.789
1.789
1.794
1.774
1.73
1.73
1.74
1.73
1.711
1.706
1.73
1.745
1.725
1.735
1.764
1.784
1.779
1.774
1.784
1.794
1.769
1.745
1.755
1.764
1.755
1.745
1.75
1.769
1.764
1.735
1.74
1.76
1.755
1.74
1.725
1.72
1.711
1.676
1.667
1.672
1.652
1.618
1.593
1.603
1.632
1.637
1.642
1.672
1.681
1.662
1.632
1.628
1.637
1.628
1.603
1.613
1.632
1.642
1.657
1.672
1.696
1.696
1.647
1.628
1.637
1.637
1.618
1.598
1.608
1.623
1.598
1.588
1.618
1.647
1.647
1.647
1.657
1.676
1.662
1.628
1.632
1.647
1.647
1.642
1.642
1.667
1.672
1.642
1.632
1.647
1.642
1.632
1.623
1.637
1.652
1.632
1.623
1.642
1.652
1.637
1.618
1.618
1.642
1.637
1.613
1.623
1.647
1.647
1.642
1.637
1.647
1.652
1.623
1.623
1.647
1.652
1.642
1.637
1.652
1.676
1.657
1.642
1.662
1.672
1.667
1.657
1.667
1.681
1.657
1.613
1.613
1.632
1.637
1.632
1.628
1.642
1.657
1.652
1.676
1.716
1.72
1.701
1.676
1.662
1.652
1.618
1.603
1.623
1.642
1.642
1.647
1.672
1.706
1.706
1.686
1.691
1.706
1.691
1.662
1.637
1.637
1.632
1.598
1.593
1.613
1.618
1.618
1.623
1.647
1.667
1.652
1.637
1.657
1.672
1.667
1.657
1.662
1.672
1.647
1.613
1.618
1.632
1.623
1.608
1.593
1.613
1.618
1.598
1.593
1.613
1.618
1.598
1.574
1.574
1.588
1.574
1.574
1.598
1.618
1.618
1.623
1.642
1.672
1.667
1.632
1.628
1.623
1.598
1.584
1.584
1.603
1.618
1.608
1.632
1.676
1.701
1.701
1.696
1.711
1.72
1.691
1.667
1.676
1.691
1.676
1.657
1.652
1.657
1.637
1.598
1.593
1.598
1.569
1.54
1.52
1.535
1.54
1.505
1.5
1.53
1.54
1.544
1.549
1.574
1.603
1.598
1.598
1.628
1.652
1.652
1.642
1.647
1.657
1.647
1.618
1.632
1.657
1.662
1.657
1.667
1.691
1.701
1.672
1.681
1.701
1.701
1.686
1.662
1.662
1.667
1.642
1.623
1.642
1.662
1.662
1.662
1.672
1.691
1.681
1.662
1.676
1.696
1.696
1.686
1.681
1.696
1.696
1.667
1.662
1.681
1.686
1.676
1.672
1.686
1.706
1.681
1.672
1.696
1.706
1.696
1.681
1.676
1.681
1.657
1.623
1.632
1.647
1.637
1.632
1.632
1.652
1.657
1.632
1.642
1.667
1.681
1.676
1.672
1.686
1.701
1.681
1.667
1.676
1.686
1.667
1.652
1.652
1.672
1.672
1.657
1.672
1.691
1.691
1.686
1.681
1.691
1.686
1.657
1.657
1.676
1.681
1.672
1.667
1.681
1.696
1.676
1.662
1.676
1.681
1.652
1.628
1.628
1.637
1.623
1.588
1.598
1.623
1.618
1.608
1.598
1.608
1.603
1.564
1.554
1.564
1.569
1.554
1.544
1.554
1.574
1.554
1.544
1.564
1.569
1.554
1.535
1.535
1.544
1.525
1.496
1.5
1.52
1.52
1.51
1.515
1.535
1.544
1.52
1.52
1.54
1.549
1.544
1.54
1.554
1.574
1.554
1.544
1.564
1.574
1.559
1.54
1.544
1.564
1.559
1.54
1.554
1.579
1.579
1.574
1.569
1.584
1.584
1.554
1.554
1.574
1.574
1.569
1.564
1.579
1.593
1.569
1.554
1.579
1.593
1.593
1.588
1.593
1.613
1.603
1.579
1.598
1.618
1.618
1.608
1.603
1.623
1.628
1.603
1.598
1.623
1.623
1.613
1.598
1.608
1.623
1.608
1.603
1.628
1.647
1.637
1.632
1.642
1.667
1.662
1.637
1.647
1.662
1.657
1.647
1.642
1.662
1.667
1.642
1.647
1.681
1.696
1.686
1.676
1.676
1.681
1.647
1.632
1.652
1.667
1.662
1.657
1.662
1.676
1.657
1.628
1.632
1.642
1.637
1.628
1.632
1.657
1.667
1.647
1.652
1.672
1.667
1.652
1.632
1.632
1.642
1.623
1.608
1.632
1.647
1.642
1.637
1.647
1.667
1.652
1.623
1.632
1.652
1.647
1.632
1.628
1.642
1.637
1.613
1.623
1.652
1.662
1.652
1.647
1.657
1.672
1.652
1.632
1.652
1.657
1.647
1.637
1.647
1.681
1.686
1.672
1.691
1.72
1.72
1.716
1.716
1.73
1.725
1.686
1.667
1.662
1.642
1.603
1.569
1.559
1.554
1.515
1.496
1.51
1.53
1.535
1.544
1.569
1.618
1.632
1.632
1.662
1.696
1.701
1.701
1.701
1.72
1.725
1.696
1.696
1.72
1.725
1.716
1.711
1.716
1.725
1.706
1.701
1.72
1.735
1.72
1.711
1.716
1.735
1.725
1.706
1.72
1.745
1.745
1.735
1.73
1.745
1.74
1.716
1.711
1.73
1.73
1.725
1.716
1.73
1.75
1.725
1.716
1.74
1.76
1.755
1.745
1.75
1.764
1.75
1.725
1.74
1.764
1.769
1.764
1.769
1.794
1.799
1.764
1.755
1.764
1.764
1.75
1.745
1.76
1.779
1.76
1.755
1.774
1.784
1.774
1.764
1.769
1.789
1.774
1.755
1.774
1.799
1.799
1.794
1.794
1.808
1.813
1.789
1.794
1.818
1.818
1.804
1.794
1.804
1.823
1.808
1.804
1.833
1.843
1.838
1.823
1.833
1.848
1.828
1.799
1.804
1.818
1.813
1.808
1.804
1.823
1.823
1.789
1.789
1.804
1.804
1.789
1.774
1.779
1.789
1.76
1.745
1.76
1.769
1.75
1.73
1.73
1.735
1.72
1.696
1.701
1.72
1.72
1.711
1.716
1.735
1.735
1.706
1.701
1.72
1.72
1.701
1.691
1.701
1.716
1.686
1.672
1.691
1.711
1.706
1.701
1.706
1.72
1.711
1.686
1.701
1.716
1.706
1.696
1.686
1.701
1.701
1.676
1.686
1.716
1.716
1.706
1.696
1.706
1.72
1.696
1.681
1.701
1.716
1.706
1.691
1.696
1.725
1.725
1.711
1.725
1.745
1.735
1.725
1.72
1.735
1.74
1.711
1.716
1.735
1.745
1.735
1.725
1.735
1.745
1.716
1.701
1.716
1.73
1.725
1.72
1.735
1.755
1.745
1.72
1.73
1.745
1.75
1.745
1.75
1.764
1.769
1.745
1.75
1.76
1.755
1.735
1.725
1.735
1.75
1.72
1.701
1.72
1.725
1.706
1.686
1.691
1.706
1.691
1.672
1.686
1.711
1.716
1.711
1.711
1.73
1.725
1.696
1.696
1.72
1.72
1.706
1.691
1.696
1.706
1.681
1.676
1.701
1.716
1.706
1.696
1.701
1.716
1.706
1.681
1.691
1.706
1.696
1.686
1.681
1.701
1.701
1.676
1.686
1.706
1.716
1.711
1.706
1.72
1.725
1.696
1.676
1.696
1.716
1.711
1.706
1.72
1.745
1.745
1.725
1.745
1.76
1.755
1.745
1.735
1.745
1.735
1.686
1.667
1.657
1.632
1.598
1.574
1.574
1.574
1.554
1.554
1.593
1.623
1.628
1.637
1.662
1.701
1.706
1.701
1.73
1.75
1.74
1.73
1.725
1.745
1.74
1.711
1.711
1.725
1.72
1.706
1.696
1.706
1.72
1.701
1.691
1.72
1.74
1.74
1.73
1.735
1.745
1.725
1.701
1.72
1.74
1.74
1.73
1.725
1.74
1.745
1.725
1.73
1.75
1.755
1.745
1.74
1.755
1.764
1.735
1.72
1.74
1.745
1.735
1.73
1.735
1.755
1.74
1.72
1.73
1.745
1.74
1.73
1.73
1.75
1.76
1.74
1.745
1.769
1.774
1.764
1.76
1.769
1.784
1.76
1.75
1.774
1.779
1.769
1.75
1.76
1.779
1.769
1.755
1.774
1.799
1.804
1.794
1.794
1.813
1.808
1.774
1.779
1.799
1.799
1.784
1.774
1.794
1.804
1.779
1.769
1.789
1.799
1.789
1.779
1.779
1.794
1.774
1.75
1.764
1.779
1.769
1.76
1.76
1.769
1.764
1.725
1.72
1.73
1.73
1.72
1.711
1.73
1.745
1.73
1.72
1.725
1.72
1.701
1.681
1.676
1.681
1.657
1.637
1.657
1.686
1.686
1.676
1.676
1.691
1.686
1.652
1.657
1.681
1.686
1.676
1.672
1.686
1.691
1.667
1.652
1.672
1.676
1.667
1.657
1.672
1.691
1.676
1.652
1.667
1.686
1.681
1.667
1.662
1.681
1.681
1.652
1.657
1.672
1.672
1.667
1.662
1.667
1.667
1.637
1.632
1.662
1.681
1.676
1.672
1.681
1.701
1.691
1.672
1.691
1.706
1.696
1.676
1.676
1.696
1.701
1.676
1.691
1.716
1.716
1.701
1.691
1.706
1.711
1.681
1.667
1.681
1.691
1.686
1.676
1.691
1.716
1.701
1.676
1.681
1.691
1.686
1.672
1.672
1.686
1.691
1.657
1.662
1.681
1.676
1.657
1.642
1.647
1.657
1.637
1.632
1.662
1.681
1.676
1.662
1.667
1.681
1.662
1.632
1.642
1.657
1.657
1.647
1.652
1.676
1.676
1.652
1.652
1.672
1.662
1.647
1.628
1.637
1.647
1.623
1.618
1.642
1.652
1.647
1.637
1.642
1.662
1.647
1.628
1.642
1.657
1.652
1.642
1.642
1.667
1.667
1.642
1.657
1.686
1.691
1.686
1.686
1.701
1.716
1.691
1.681
1.691
1.686
1.662
1.632
1.628
1.628
1.593
1.559
1.559
1.569
1.559
1.54
1.54
1.564
1.579
1.564
1.584
1.623
1.642
1.647
1.652
1.672
1.686
1.657
1.652
1.676
1.686
1.672
1.662
1.672
1.696
1.686
1.676
1.696
1.716
1.716
1.706
1.706
1.72
1.711
1.676
1.672
1.686
1.686
1.681
1.676
1.696
1.706
1.681
1.672
1.691
1.696
1.691
1.686
1.696
1.711
1.701
1.686
1.696
1.711
1.706
1.691
1.686
1.701
1.706
1.681
1.681
1.701
1.706
1.696
1.691
1.701
1.716
1.696
1.696
1.72
1.735
1.725
1.711
1.716
1.735
1.716
1.696
1.711
1.73
1.73
1.73
1.735
1.75
1.74
1.711
1.72
1.74
1.745
1.735
1.725
1.745
1.755
1.735
1.73
1.75
1.76
1.755
1.75
1.76
1.774
1.76
1.735
1.75
1.76
1.755
1.735
1.73
1.745
1.745
1.725
1.74
1.764
1.764
1.75
1.74
1.75
1.755
1.73
1.725
1.75
1.76
1.755
1.74
1.745
1.76
1.735
1.706
1.706
1.706
1.691
1.672
1.672
1.681
1.676
1.652
1.662
1.686
1.681
1.672
1.667
1.676
1.681
1.652
1.637
1.652
1.657
1.647
1.632
1.642
1.662
1.642
1.628
1.642
1.662
1.652
1.642
1.647
1.672
1.672
1.647
1.652
1.676
1.676
1.667
1.657
1.662
1.667
1.632
1.628
1.657
1.672
1.662
1.652
1.662
1.686
1.667
1.642
1.647
1.657
1.647
1.637
1.642
1.662
1.662
1.642
1.652
1.676
1.672
1.662
1.652
1.676
1.696
1.676
1.676
1.701
1.711
1.696
1.676
1.672
1.681
1.657
1.642
1.657
1.681
1.681
1.681
1.696
1.716
1.716
1.691
1.701
1.716
1.711
1.696
1.686
1.691
1.691
1.657
1.642
1.657
1.657
1.647
1.642
1.647
1.667
1.652
1.632
1.647
1.662
1.652
1.642
1.642
1.657
1.652
1.628
1.637
1.657
1.657
1.647
1.637
1.652
1.657
1.623
1.613
1.632
1.642
1.632
1.623
1.632
1.652
1.642
1.628
1.647
1.662
1.657
1.642
1.642
1.652
1.647
1.618
1.623
1.637
1.632
1.623
1.623
1.642
1.657
1.642
1.642
1.667
1.667
1.652
1.642
1.657
1.676
1.667
1.657
1.681
1.701
1.701
1.691
1.691
1.696
1.672
1.623
1.613
1.623
1.608
1.579
1.554
1.559
1.554
1.52
1.515
1.54
1.554
1.554
1.559
1.579
1.608
1.613
1.618
1.652
1.681
1.681
1.676
1.686
1.706
1.706
1.676
1.676
1.696
1.696
1.681
1.672
1.686
1.696
1.672
1.672
1.691
1.701
1.691
1.681
1.691
1.701
1.686
1.667
1.681
1.691
1.686
1.676
1.686
1.711
1.711
1.686
1.691
1.716
1.716
1.711
1.706
1.72
1.72
1.686
1.686
1.706
1.716
1.701
1.691
1.701
1.72
1.701
1.691
1.711
1.725
1.72
1.711
1.716
1.735
1.725
1.701
1.711
1.735
1.74
1.725
1.716
1.72
1.725
1.701
1.701
1.73
1.745
1.74
1.735
1.75
1.764
1.75
1.73
1.745
1.76
1.75
1.74
1.745
1.764
1.764
1.74
1.745
1.764
1.76
1.75
1.75
1.769
1.779
1.75
1.75
1.774
1.779
1.769
1.764
1.774
1.789
1.764
1.745
1.755
1.76
1.74
1.725
1.72
1.735
1.725
1.696
1.706
1.725
1.72
1.711
1.706
1.72
1.725
1.701
1.696
1.716
1.716
1.696
1.681
1.681
1.696
1.672
1.647
1.657
1.672
1.662
1.652
1.652
1.672
1.662
1.637
1.642
1.667
1.667
1.657
1.657
1.672
1.676
1.652
1.647
1.667
1.672
1.657
1.642
1.647
1.662
1.642
1.628
1.647
1.662
1.662
1.652
1.657
1.676
1.667
1.642
1.652
1.672
1.672
1.657
1.652
1.667
1.672
1.642
1.642
1.667
1.672
1.667
1.657
1.662
1.676
1.662
1.647
1.662
1.676
1.667
1.662
1.657
1.672
1.662
1.637
1.647
1.667
1.667
1.662
1.662
1.686
1.696
1.667
1.657
1.672
1.672
1.667
1.652
1.662
1.676
1.667
1.657
1.681
1.696
1.691
1.676
1.676
1.686
1.676
1.647
1.657
1.681
1.686
1.681
1.681
1.696
1.701
1.681
1.681
1.701
1.706
1.691
1.686
1.701
1.711
1.686
1.672
1.686
1.696
1.681
1.662
1.657
1.676
1.667
1.642
1.652
1.672
1.672
1.662
1.657
1.667
1.676
1.647
1.642
1.662
1.662
1.642
1.632
1.642
1.657
1.642
1.628
1.652
1.672
1.672
1.657
1.652
1.667
1.657
1.632
1.642
1.662
1.662
1.652
1.642
1.657
1.657
1.632
1.623
1.642
1.642
1.637
1.637
1.647
1.662
1.642
1.628
1.647
1.662
1.652
1.642
1.647
1.667
1.662
1.637
1.657
1.681
1.686
1.686
1.691
1.72
1.735
1.711
1.711
1.73
1.73
1.706
1.676
1.662
1.647
1.598
1.554
1.544
1.54
1.525
1.515
1.53
1.554
1.564
1.554
1.579
1.613
1.623
1.623
1.632
1.662
1.681
1.667
1.667
1.691
1.701
1.686
1.681
1.691
1.701
1.681
1.672
1.696
1.711
1.701
1.691
1.696
1.716
1.711
1.691
1.701
1.725
1.725
1.72
1.716
1.725
1.73
1.706
1.706
1.73
1.735
1.72
1.711
1.72
1.735
1.72
1.706
1.725
1.735
1.72
1.711
1.711
1.725
1.716
1.691
1.706
1.73
1.72
1.711
1.706
1.73
1.74
1.72
1.72
1.74
1.745
1.735
1.725
1.735
1.745
1.716
1.696
1.716
1.735
1.735
1.73
1.745
1.774
1.769
1.74
1.745
1.76
1.755
1.745
1.74
1.755
1.76
1.735
1.74
1.764
1.774
1.764
1.75
1.755
1.769
1.75
1.735
1.755
1.769
1.764
1.76
1.769
1.789
1.774
1.74
1.75
1.769
1.764
1.755
1.755
1.779
1.784
1.755
1.75
1.764
1.764
1.745
1.735
1.74
1.745
1.725
1.716
1.735
1.745
1.73
1.711
1.706
1.72
1.711
1.681
1.686
1.696
1.686
1.672
1.667
1.681
1.686
1.662
1.662
1.681
1.681
1.667
1.652
1.667
1.676
1.652
1.637
1.657
1.672
1.672
1.667
1.676
1.696
1.681
1.647
1.657
1.676
1.672
1.657
1.652
1.672
1.676
1.657
1.662
1.686
1.691
1.676
1.662
1.667
1.681
1.657
1.632
1.647
1.662
1.662
1.657
1.662
1.681
1.672
1.647
1.662
1.681
1.676
1.667
1.667
1.681
1.691
1.662
1.667
1.691
1.696
1.686
1.676
1.681
1.696
1.672
1.657
1.676
1.686
1.676
1.667
1.672
1.691
1.681
1.657
1.667
1.676
1.672
1.657
1.662
1.686
1.696
1.676
1.681
1.706
1.706
1.686
1.667
1.672
1.681
1.657
1.637
1.662
1.681
1.676
1.667
1.667
1.681
1.667
1.642
1.652
1.672
1.667
1.652
1.652
1.681
1.691
1.672
1.676
1.706
1.711
1.701
1.691
1.701
1.711
1.686
1.672
1.696
1.711
1.711
1.706
1.711
1.72
1.706
1.681
1.696
1.716
1.711
1.701
1.686
1.696
1.691
1.657
1.652
1.672
1.672
1.662
1.647
1.662
1.676
1.657
1.642
1.662
1.667
1.657
1.642
1.652
1.672
1.662
1.637
1.652
1.672
1.667
1.657
1.657
1.676
1.681
1.657
1.662
1.676
1.676
1.662
1.647
1.657
1.662
1.632
1.618
1.632
1.652
1.652
1.647
1.662
1.686
1.681
1.662
1.676
1.691
1.686
1.667
1.652
1.662
1.657
1.628
1.628
1.652
1.657
1.657
1.662
1.686
1.716
1.706
1.706
1.735
1.745
1.735
1.725
1.73
1.74
1.72
1.676
1.667
1.657
1.628
1.588
1.559
1.549
1.535
1.5
1.5
1.525
1.54
1.54
1.54
1.564
1.593
1.588
1.598
1.642
1.672
1.681
1.686
1.706
1.725
1.716
1.686
1.691
1.696
1.686
1.676
1.676
1.701
1.716
1.696
1.701
1.72
1.725
1.716
1.706
1.711
1.72
1.696
1.681
1.706
1.725
1.725
1.716
1.72
1.735
1.72
1.701
1.716
1.735
1.73
1.72
1.716
1.725
1.725
1.691
1.691
1.716
1.716
1.706
1.696
1.711
1.725
1.706
1.701
1.725
1.735
1.73
1.725
1.735
1.755
1.745
1.72
1.735
1.755
1.755
1.745
1.75
1.769
1.774
1.75
1.75
1.769
1.769
1.755
1.745
1.76
1.774
1.75
1.745
1.764
1.784
1.779
1.769
1.774
1.789
1.774
1.75
1.755
1.764
1.755
1.74
1.74
1.76
1.764
1.74
1.75
1.774
1.779
1.764
1.755
1.764
1.779
1.755
1.75
1.774
1.789
1.779
1.769
1.769
1.784
1.76
1.72
1.72
1.725
1.72
1.716
1.716
1.735
1.73
1.701
1.701
1.72
1.72
1.711
1.696
1.706
1.711
1.691
1.681
1.701
1.706
1.691
1.676
1.676
1.691
1.667
1.642
1.647
1.662
1.657
1.642
1.642
1.657
1.662
1.637
1.647
1.672
1.672
1.662
1.652
1.667
1.681
1.652
1.642
1.657
1.667
1.662
1.647
1.652
1.676
1.672
1.647
1.662
1.681
1.676
1.662
1.657
1.676
1.681
1.662
1.667
1.686
1.691
1.681
1.672
1.676
1.681
1.657
1.652
1.672
1.676
1.667
1.657
1.662
1.681
1.672
1.652
1.667
1.691
1.686
1.681
1.681
1.696
1.686
1.657
1.662
1.691
1.696
1.691
1.686
1.706
1.72
1.696
1.676
1.691
1.691
1.676
1.657
1.657
1.672
1.662
1.642
1.657
1.672
1.672
1.667
1.672
1.691
1.691
1.667
1.676
1.696
1.691
1.676
1.662
1.667
1.672
1.642
1.637
1.662
1.686
1.691
1.691
1.701
1.716
1.706
1.681
1.696
1.711
1.701
1.686
1.686
1.706
1.706
1.676
1.681
1.701
1.701
1.686
1.676
1.691
1.711
1.686
1.681
1.701
1.711
1.696
1.681
1.676
1.686
1.667
1.637
1.652
1.667
1.662
1.657
1.662
1.676
1.667
1.632
1.632
1.652
1.652
1.637
1.632
1.662
1.686
1.672
1.667
1.686
1.691
1.676
1.657
1.657
1.667
1.647
1.628
1.642
1.662
1.652
1.642
1.642
1.667
1.676
1.652
1.657
1.676
1.681
1.672
1.657
1.667
1.672
1.642
1.637
1.662
1.672
1.667
1.662
1.672
1.686
1.672
1.652
1.667
1.686
1.686
1.686
1.696
1.72
1.725
1.706
1.72
1.735
1.72
1.696
1.676
1.672
1.662
1.623
1.593
1.593
1.584
1.554
1.525
1.515
1.525
1.51
1.5
1.535
1.569
1.588
1.603
1.632
1.662
1.676
1.662
1.672
1.691
1.691
1.681
1.681
1.696
1.701
1.672
1.662
1.691
1.706
1.701
1.691
1.701
1.72
1.706
1.686
1.701
1.72
1.716
1.701
1.701
1.72
1.716
1.686
1.691
1.701
1.701
1.686
1.686
1.701
1.72
1.701
1.701
1.73
1.75
1.74
1.725
1.725
1.74
1.725
1.701
1.716
1.735
1.735
1.73
1.735
1.755
1.755
1.725
1.735
1.755
1.755
1.745
1.745
1.76
1.769
1.74
1.73
1.75
1.755
1.74
1.725
1.735
1.76
1.75
1.73
1.745
1.76
1.75
1.74
1.735
1.755
1.755
1.735
1.75
1.784
1.794
1.789
1.779
1.784
1.784
1.76
1.75
1.764
1.769
1.764
1.76
1.774
1.799
1.789
1.774
1.789
1.804
1.794
1.779
1.774
1.789
1.779
1.75
1.75
1.764
1.764
1.75
1.745
1.75
1.755
1.725
1.711
1.72
1.725
1.711
1.701
1.711
1.725
1.706
1.686
1.696
1.706
1.696
1.676
1.672
1.691
1.686
1.652
1.657
1.681
1.681
1.672
1.657
1.667
1.676
1.647
1.637
1.657
1.662
1.642
1.637
1.642
1.667
1.652
1.637
1.657
1.672
1.657
1.647
1.642
1.662
1.647
1.618
1.632
1.662
1.667
1.672
1.667
1.681
1.686
1.662
1.652
1.672
1.676
1.667
1.657
1.667
1.686
1.676
1.657
1.662
1.667
1.652
1.632
1.628
1.647
1.647
1.628
1.642
1.667
1.667
1.662
1.662
1.681
1.696
1.672
1.662
1.686
1.691
1.681
1.667
1.667
1.676
1.652
1.632
1.652
1.667
1.662
1.647
1.647
1.667
1.662
1.637
1.652
1.676
1.681
1.676
1.667
1.672
1.676
1.642
1.637
1.657
1.662
1.652
1.642
1.652
1.672
1.652
1.632
1.642
1.662
1.652
1.647
1.657
1.691
1.696
1.676
1.691
1.711
1.706
1.696
1.691
1.701
1.711
1.691
1.686
1.701
1.706
1.696
1.686
1.701
1.72
1.701
1.686
1.706
1.716
1.701
1.681
1.672
1.676
1.657
1.623
1.628
1.652
1.657
1.652
1.652
1.672
1.676
1.647
1.642
1.662
1.672
1.667
1.657
1.662
1.672
1.652
1.632
1.647
1.657
1.642
1.632
1.637
1.657
1.657
1.637
1.647
1.667
1.667
1.657
1.652
1.667
1.672
1.642
1.637
1.657
1.667
1.652
1.642
1.647
1.657
1.642
1.628
1.647
1.662
1.652
1.642
1.642
1.662
1.657
1.632
1.642
1.672
1.681
1.686
1.691
1.716
1.73
1.706
1.701
1.716
1.711
1.681
1.652
1.632
1.623
1.579
1.54
1.535
1.53
1.51
1.486
1.486
1.505
1.505
1.491
1.515
1.559
1.579
1.588
1.603
1.632
1.657
1.637
1.637
1.662
1.672
1.662
1.652
1.667
1.681
1.662
1.642
1.662
1.686
1.681
1.667
1.672
1.691
1.691
1.672
1.676
1.696
1.686
1.672
1.667
1.681
1.681
1.652
1.652
1.686
1.696
1.691
1.686
1.701
1.716
1.696
1.676
1.691
1.701
1.696
1.681
1.686
1.706
1.706
1.676
1.686
1.701
1.701
1.686
1.686
1.711
1.725
1.706
1.706
1.73
1.74
1.725
1.716
1.72
1.73
1.711
1.701
1.725
1.75
1.755
1.745
1.745
1.76
1.75
1.72
1.73
1.74
1.735
1.72
1.725
1.75
1.764
1.74
1.735
1.755
1.76
1.755
1.75
1.76
1.774
1.755
1.74
1.755
1.769
1.76
1.75
1.755
1.774
1.769
1.745
1.755
1.779
1.774
1.76
1.75
1.764
1.764
1.735
1.73
1.75
1.755
1.745
1.735
1.74
1.75
1.72
1.701
1.706
1.711
1.691
1.676
1.676
1.696
1.691
1.672
1.681
1.701
1.701
1.686
1.681
1.691
1.691
1.652
1.647
1.672
1.672
1.657
1.637
1.647
1.657
1.637
1.618
1.637
1.652
1.652
1.647
1.652
1.672
1.667
1.637
1.647
1.667
1.657
1.632
1.628
1.637
1.647
1.623
1.623
1.647
1.652
1.637
1.623
1.632
1.652
1.637
1.618
1.632
1.647
1.647
1.642
1.647
1.672
1.662
1.642
1.652
1.672
1.667
1.657
1.652
1.667
1.676
1.652
1.652
1.676
1.676
1.662
1.647
1.657
1.667
1.642
1.623
1.637
1.657
1.652
1.642
1.647
1.667
1.662
1.637
1.652
1.676
1.676
1.662
1.657
1.667
1.667
1.637
1.632
1.657
1.672
1.672
1.672
1.691
1.711
1.696
1.676
1.686
1.691
1.676
1.657
1.662
1.686
1.686
1.672
1.686
1.711
1.706
1.691
1.681
1.691
1.691
1.657
1.657
1.681
1.686
1.676
1.672
1.681
1.686
1.652
1.628
1.637
1.642
1.628
1.613
1.618
1.637
1.632
1.618
1.632
1.652
1.652
1.637
1.628
1.637
1.637
1.608
1.603
1.628
1.632
1.623
1.618
1.632
1.652
1.637
1.628
1.652
1.672
1.662
1.647
1.642
1.652
1.637
1.608
1.618
1.637
1.637
1.632
1.637
1.662
1.667
1.642
1.637
1.652
1.647
1.632
1.623
1.632
1.652
1.637
1.632
1.672
1.701
1.706
1.701
1.706
1.72
1.711
1.681
1.681
1.686
1.667
1.642
1.618
1.608
1.584
1.535
1.515
1.515
1.51
1.486
1.481
1.5
1.53
1.53
1.54
1.584
1.623
1.642
1.647
1.662
1.691
1.686
1.662
1.676
1.686
1.681
1.672
1.672
1.696
1.701
1.672
1.676
1.701
1.706
1.696
1.686
1.701
1.716
1.691
1.681
1.701
1.711
1.701
1.691
1.696
1.711
1.701
1.676
1.691
1.716
1.716
1.701
1.691
1.706
1.711
1.681
1.681
1.701
1.711
1.706
1.701
1.72
1.74
1.725
1.716
1.735
1.74
1.73
1.716
1.72
1.735
1.72
1.701
1.716
1.74
1.74
1.735
1.735
1.75
1.755
1.725
1.725
1.745
1.74
1.725
1.725
1.74
1.755
1.735
1.725
1.75
1.769
1.764
1.76
1.76
1.774
1.755
1.73
1.74
1.75
1.745
1.735
1.74
1.76
1.774
1.75
1.755
1.774
1.779
1.769
1.764
1.774
1.789
1.764
1.75
1.769
1.774
1.764
1.75
1.75
1.764
1.75
1.725
1.74
1.76
1.75
1.735
1.73
1.74
1.735
1.706
1.706
1.72
1.72
1.706
1.696
1.706
1.711
1.686
1.672
1.686
1.696
1.686
1.672
1.676
1.686
1.672
1.647
1.662
1.686
1.681
1.672
1.672
1.691
1.696
1.662
1.652
1.662
1.662
1.647
1.637
1.652
1.667
1.647
1.642
1.667
1.676
1.662
1.642
1.652
1.667
1.652
1.628
1.642
1.667
1.676
1.676
1.681
1.706
1.711
1.681
1.676
1.686
1.681
1.662
1.647
1.652
1.662
1.642
1.637
1.662
1.676
1.672
1.667
1.672
1.686
1.676
1.657
1.672
1.681
1.672
1.657
1.657
1.672
1.676
1.652
1.657
1.676
1.676
1.662
1.652
1.657
1.667
1.647
1.642
1.672
1.686
1.681
1.676
1.691
1.706
1.691
1.662
1.672
1.686
1.672
1.657
1.652
1.667
1.662
1.632
1.642
1.667
1.672
1.662
1.662
1.691
1.711
1.691
1.686
1.701
1.711
1.696
1.686
1.691
1.706
1.686
1.662
1.676
1.696
1.681
1.662
1.652
1.667
1.662
1.623
1.628
1.647
1.652
1.642
1.642
1.652
1.667
1.647
1.637
1.652
1.662
1.652
1.642
1.647
1.662
1.647
1.628
1.642
1.662
1.652
1.632
1.628
1.642
1.642
1.618
1.623
1.642
1.647
1.637
1.632
1.647
1.657
1.628
1.618
1.647
1.667
1.657
1.647
1.652
1.667
1.657
1.632
1.642
1.657
1.647
1.637
1.642
1.667
1.672
1.657
1.676
1.706
1.716
1.711
1.716
1.735
1.745
1.711
1.686
1.686
1.676
1.642
1.603
1.584
1.579
1.544
1.51
1.51
1.52
1.505
1.496
1.5
1.535
1.554
1.554
1.588
1.637
1.667
1.672
1.672
1.686
1.701
1.672
1.657
1.672
1.681
1.676
1.672
1.686
1.706
1.691
1.667
1.686
1.711
1.711
1.706
1.711
1.73
1.725
1.691
1.691
1.711
1.716
1.706
1.696
1.711
1.725
1.711
1.706
1.725
1.735
1.72
1.701
1.701
1.716
1.706
1.691
1.711
1.73
1.72
1.711
1.716
1.735
1.73
1.701
1.701
1.72
1.72
1.711
1.711
1.72
1.735
1.716
1.716
1.74
1.75
1.74
1.735
1.745
1.764
1.755
1.735
1.745
1.76
1.755
1.745
1.74
1.76
1.764
1.74
1.75
1.769
1.774
1.764
1.76
1.774
1.784
1.76
1.75
1.774
1.789
1.789
1.779
1.784
1.799
1.779
1.76
1.774
1.794
1.779
1.764
1.764
1.779
1.779
1.75
1.755
1.769
1.769
1.76
1.755
1.774
1.779
1.75
1.74
1.76
1.764
1.75
1.73
1.735
1.745
1.73
1.706
1.716
1.72
1.706
1.696
1.691
1.701
1.686
1.652
1.652
1.672
1.672
1.667
1.662
1.676
1.696
1.672
1.662
1.672
1.676
1.657
1.642
1.647
1.662
1.647
1.632
1.652
1.676
1.672
1.662
1.662
1.676
1.672
1.642
1.642
1.662
1.662
1.652
1.642
1.652
1.662
1.637
1.637
1.667
1.681
1.676
1.672
1.681
1.696
1.681
1.662
1.672
1.681
1.667
1.647
1.652
1.672
1.672
1.642
1.652
1.681
1.681
1.672
1.667
1.681
1.696
1.672
1.667
1.686
1.691
1.676
1.667
1.667
1.676
1.662
1.647
1.667
1.681
1.676
1.662
1.667
1.681
1.676
1.642
1.647
1.662
1.667
1.667
1.672
1.691
1.701
1.676
1.672
1.696
1.701
1.686
1.672
1.681
1.691
1.667
1.652
1.672
1.691
1.686
1.672
1.672
1.696
1.701
1.686
1.696
1.72
1.716
1.696
1.686
1.691
1.696
1.662
1.652
1.672
1.681
1.667
1.657
1.667
1.681
1.662
1.642
1.662
1.676
1.676
1.662
1.662
1.672
1.667
1.632
1.642
1.662
1.662
1.647
1.642
1.652
1.657
1.628
1.628
1.647
1.657
1.647
1.647
1.657
1.676
1.657
1.632
1.642
1.652
1.647
1.642
1.657
1.681
1.681
1.652
1.657
1.672
1.657
1.632
1.618
1.628
1.637
1.618
1.623
1.657
1.676
1.672
1.672
1.686
1.706
1.691
1.681
1.706
1.73
1.73
1.716
1.706
1.706
1.676
1.632
1.613
1.603
1.569
1.54
1.52
1.525
1.53
1.505
1.5
1.53
1.549
1.559
1.564
1.593
1.632
1.637
1.637
1.672
1.696
1.696
1.686
1.691
1.711
1.706
1.681
1.686
1.711
1.711
1.696
1.691
1.701
1.706
1.676
1.672
1.696
1.701
1.696
1.686
1.696
1.716
1.706
1.696
1.716
1.735
1.74
1.74
1.745
1.76
1.745
1.716
1.716
1.73
1.72
1.711
1.711
1.73
1.745
1.72
1.72
1.74
1.745
1.73
1.72
1.725
1.74
1.725
1.711
1.73
1.755
1.755
1.745
1.745
1.76
1.764
1.74
1.75
1.76
1.75
1.735
1.735
1.755
1.764
1.74
1.735
1.76
1.764
1.755
1.745
1.755
1.774
1.755
1.74
1.764
1.784
1.784
1.774
1.779
1.794
1.784
1.755
1.76
1.779
1.774
1.769
1.76
1.774
1.779
1.76
1.76
1.784
1.789
1.779
1.779
1.789
1.804
1.779
1.76
1.769
1.774
1.76
1.74
1.735
1.755
1.755
1.725
1.73
1.745
1.74
1.725
1.711
1.716
1.711
1.672
1.662
1.686
1.696
1.686
1.676
1.686
1.701
1.676
1.657
1.672
1.681
1.672
1.657
1.657
1.676
1.672
1.652
1.667
1.686
1.686
1.672
1.667
1.681
1.681
1.652
1.647
1.672
1.676
1.662
1.652
1.657
1.672
1.657
1.647
1.672
1.686
1.676
1.667
1.676
1.701
1.686
1.652
1.657
1.672
1.667
1.652
1.652
1.672
1.686
1.662
1.662
1.676
1.676
1.667
1.657
1.662
1.676
1.657
1.647
1.672
1.691
1.686
1.681
1.686
1.701
1.691
1.662
1.672
1.686
1.691
1.681
1.686
1.706
1.711
1.686
1.686
1.706
1.711
1.696
1.681
1.681
1.696
1.672
1.652
1.672
1.691
1.686
1.676
1.686
1.706
1.701
1.676
1.691
1.716
1.711
1.701
1.696
1.711
1.72
1.696
1.696
1.711
1.711
1.696
1.691
1.701
1.711
1.691
1.672
1.681
1.691
1.676
1.662
1.657
1.672
1.667
1.642
1.652
1.681
1.681
1.672
1.667
1.672
1.672
1.642
1.642
1.667
1.667
1.652
1.647
1.657
1.676
1.657
1.637
1.647
1.657
1.647
1.632
1.637
1.652
1.647
1.618
1.632
1.652
1.652
1.642
1.637
1.652
1.652
1.623
1.628
1.652
1.662
1.647
1.637
1.647
1.662
1.642
1.637
1.662
1.681
1.681
1.681
1.696
1.72
1.72
1.706
1.72
1.735
1.72
1.701
1.686
1.691
1.676
1.623
1.588
1.574
1.544
1.515
1.486
1.491
1.5
1.491
1.496
1.535
1.579
1.593
1.603
1.623
1.657
1.662
1.647
1.672
1.696
1.691
1.672
1.667
1.681
1.686
1.662
1.662
1.691
1.706
1.706
1.706
1.72
1.73
1.706
1.686
1.691
1.696
1.686
1.676
1.686
1.711
1.706
1.681
1.701
1.72
1.72
1.711
1.701
1.716
1.716
1.691
1.696
1.725
1.735
1.725
1.72
1.73
1.74
1.716
1.696
1.706
1.711
1.701
1.696
1.706
1.735
1.735
1.72
1.735
1.755
1.745
1.73
1.73
1.75
1.755
1.73
1.735
1.76
1.76
1.745
1.735
1.735
1.74
1.716
1.706
1.73
1.755
1.75
1.745
1.76
1.784
1.774
1.75
1.76
1.774
1.769
1.755
1.75
1.764
1.764
1.735
1.735
1.755
1.76
1.75
1.735
1.74
1.75
1.72
1.706
1.73
1.75
1.75
1.75
1.76
1.779
1.769
1.75
1.76
1.774
1.76
1.74
1.73
1.735
1.73
1.691
1.681
1.696
1.691
1.676
1.672
1.691
1.711
1.686
1.676
1.691
1.696
1.686
1.667
1.662
1.672
1.657
1.632
1.637
1.642
1.637
1.623
1.628
1.652
1.667
1.647
1.657
1.681
1.681
1.662
1.642
1.642
1.652
1.632
1.623
1.642
1.662
1.667
1.657
1.667
1.681
1.667
1.637
1.652
1.672
1.676
1.667
1.672
1.686
1.696
1.667
1.672
1.691
1.691
1.681
1.672
1.686
1.701
1.672
1.657
1.676
1.681
1.672
1.657
1.662
1.681
1.672
1.652
1.672
1.686
1.676
1.667
1.667
1.681
1.686
1.657
1.662
1.681
1.681
1.667
1.657
1.676
1.691
1.681
1.672
1.696
1.706
1.696
1.681
1.681
1.696
1.681
1.662
1.681
1.706
1.706
1.701
1.711
1.73
1.73
1.701
1.701
1.725
1.735
1.725
1.72
1.725
1.73
1.701
1.681
1.686
1.691
1.672
1.657
1.662
1.676
1.662
1.637
1.652
1.667
1.662
1.652
1.652
1.672
1.676
1.647
1.652
1.676
1.676
1.662
1.647
1.657
1.662
1.632
1.623
1.647
1.657
1.647
1.647
1.652
1.667
1.652
1.628
1.642
1.662
1.657
1.647
1.647
1.672
1.681
1.662
1.667
1.686
1.681
1.667
1.652
1.657
1.662
1.637
1.628
1.647
1.662
1.657
1.662
1.676
1.706
1.706
1.691
1.711
1.73
1.73
1.72
1.711
1.72
1.701
1.652
1.632
1.628
1.593
1.549
1.515
1.51
1.51
1.481
1.476
1.515
1.544
1.559
1.579
1.608
1.642
1.642
1.623
1.647
1.676
1.681
1.686
1.696
1.72
1.725
1.706
1.716
1.735
1.735
1.711
1.691
1.696
1.706
1.681
1.676
1.701
1.716
1.711
1.706
1.716
1.73
1.716
1.691
1.701
1.72
1.72
1.716
1.716
1.735
1.73
1.706
1.711
1.725
1.72
1.706
1.706
1.725
1.745
1.73
1.735
1.76
1.769
1.75
1.73
1.725
1.735
1.711
1.691
1.706
1.73
1.73
1.725
1.73
1.75
1.75
1.725
1.725
1.74
1.745
1.735
1.735
1.755
1.769
1.75
1.745
1.769
1.784
1.779
1.774
1.779
1.794
1.769
1.745
1.755
1.769
1.76
1.745
1.74
1.76
1.764
1.745
1.755
1.784
1.799
1.799
1.794
1.808
1.823
1.789
1.769
1.779
1.774
1.755
1.74
1.75
1.774
1.76
1.74
1.755
1.764
1.755
1.73
1.72
1.735
1.73
1.696
1.696
1.716
1.716
1.706
1.701
1.72
1.73
1.706
1.696
1.711
1.716
1.701
1.691
1.696
1.706
1.691
1.672
1.686
1.696
1.686
1.667
1.657
1.667
1.657
1.628
1.637
1.662
1.667
1.662
1.662
1.686
1.691
1.667
1.652
1.667
1.676
1.667
1.647
1.652
1.672
1.662
1.647
1.672
1.686
1.681
1.667
1.667
1.686
1.686
1.652
1.657
1.676
1.676
1.667
1.657
1.667
1.676
1.652
1.647
1.667
1.681
1.681
1.676
1.686
1.701
1.691
1.672
1.686
1.701
1.696
1.681
1.681
1.696
1.691
1.662
1.672
1.696
1.696
1.681
1.672
1.681
1.691
1.672
1.667
1.691
1.696
1.686
1.676
1.686
1.706
1.691
1.676
1.701
1.72
1.716
1.711
1.716
1.73
1.72
1.691
1.691
1.711
1.711
1.701
1.696
1.711
1.716
1.686
1.676
1.691
1.696
1.691
1.686
1.691
1.706
1.691
1.672
1.686
1.691
1.672
1.642
1.632
1.647
1.642
1.618
1.628
1.652
1.657
1.652
1.652
1.667
1.681
1.657
1.647
1.672
1.681
1.667
1.652
1.652
1.657
1.637
1.618
1.632
1.647
1.642
1.637
1.642
1.667
1.667
1.647
1.657
1.681
1.672
1.657
1.647
1.657
1.667
1.642
1.637
1.657
1.667
1.657
1.652
1.667
1.691
1.681
1.672
1.701
1.73
1.735
1.735
1.745
1.764
1.755
1.716
1.696
1.681
1.647
1.598
1.564
1.554
1.549
1.515
1.505
1.53
1.54
1.54
1.54
1.564
1.603
1.608
1.613
1.652
1.686
1.696
1.701
1.706
1.716
1.706
1.672
1.681
1.711
1.716
1.716
1.72
1.735
1.74
1.711
1.701
1.716
1.72
1.706
1.701
1.711
1.735
1.72
1.701
1.72
1.735
1.73
1.72
1.72
1.735
1.725
1.701
1.711
1.73
1.73
1.72
1.72
1.74
1.755
1.735
1.74
1.76
1.76
1.74
1.725
1.735
1.76
1.745
1.735
1.75
1.764
1.755
1.745
1.745
1.76
1.75
1.72
1.725
1.75
1.764
1.764
1.76
1.769
1.779
1.755
1.755
1.774
1.784
1.769
1.755
1.76
1.779
1.769
1.76
1.789
1.813
1.818
1.818
1.828
1.843
1.828
1.794
1.794
1.808
1.804
1.794
1.794
1.808
1.813
1.789
1.784
1.804
1.808
1.794
1.779
1.789
1.799
1.774
1.755
1.769
1.784
1.769
1.755
1.755
1.779
1.774
1.745
1.75
1.764
1.769
1.764
1.76
1.764
1.764
1.73
1.72
1.73
1.72
1.701
1.681
1.691
1.716
1.701
1.696
1.716
1.725
1.711
1.691
1.686
1.696
1.686
1.657
1.672
1.691
1.696
1.686
1.691
1.706
1.706
1.672
1.662
1.681
1.686
1.676
1.667
1.686
1.706
1.691
1.681
1.701
1.716
1.706
1.691
1.686
1.701
1.691
1.662
1.672
1.696
1.696
1.681
1.676
1.686
1.691
1.662
1.667
1.696
1.706
1.701
1.696
1.711
1.735
1.725
1.711
1.73
1.74
1.73
1.716
1.711
1.72
1.711
1.686
1.696
1.72
1.72
1.716
1.716
1.73
1.735
1.706
1.701
1.72
1.72
1.711
1.706
1.72
1.74
1.725
1.716
1.73
1.735
1.72
1.691
1.681
1.686
1.672
1.642
1.657
1.676
1.681
1.672
1.672
1.691
1.701
1.672
1.662
1.681
1.686
1.672
1.657
1.662
1.676
1.652
1.632
1.652
1.667
1.662
1.657
1.662
1.686
1.676
1.647
1.652
1.672
1.676
1.662
1.657
1.672
1.676
1.652
1.657
1.681
1.681
1.667
1.647
1.647
1.657
1.632
1.618
1.632
1.647
1.647
1.647
1.662
1.691
1.686
1.672
1.686
1.711
1.716
1.716
1.716
1.735
1.745
1.716
1.711
1.716
1.696
1.657
1.623
1.603
1.593
1.544
1.505
1.51
1.515
1.505
1.5
1.51
1.544
1.549
1.544
1.574
1.613
1.623
1.628
1.642
1.672
1.691
1.667
1.672
1.701
1.716
1.701
1.681
1.686
1.701
1.672
1.657
1.676
1.696
1.696
1.686
1.691
1.716
1.711
1.681
1.696
1.711
1.706
1.691
1.686
1.706
1.711
1.686
1.686
1.706
1.711
1.701
1.696
1.711
1.725
1.701
1.686
1.701
1.716
1.706
1.691
1.701
1.725
1.72
1.701
1.711
1.72
1.72
1.711
1.711
1.725
1.73
1.706
1.711
1.735
1.745
1.735
1.725
1.735
1.745
1.72
1.706
1.725
1.74
1.735
1.725
1.735
1.76
1.76
1.74
1.755
1.779
1.774
1.76
1.755
1.769
1.769
1.735
1.74
1.76
1.764
1.755
1.745
1.76
1.779
1.764
1.75
1.769
1.779
1.764
1.755
1.755
1.769
1.755
1.73
1.74
1.76
1.75
1.74
1.735
1.745
1.745
1.711
1.706
1.725
1.72
1.701
1.686
1.691
1.696
1.667
1.647
1.662
1.672
1.662
1.647
1.652
1.672
1.657
1.632
1.642
1.657
1.657
1.647
1.652
1.667
1.662
1.628
1.628
1.647
1.647
1.637
1.628
1.642
1.662
1.652
1.647
1.672
1.676
1.662
1.642
1.637
1.652
1.637
1.608
1.623
1.637
1.637
1.632
1.628
1.652
1.652
1.628
1.632
1.647
1.652
1.642
1.642
1.657
1.667
1.642
1.632
1.652
1.667
1.657
1.642
1.647
1.662
1.652
1.628
1.647
1.667
1.672
1.662
1.662
1.681
1.686
1.657
1.667
1.686
1.686
1.672
1.662
1.672
1.686
1.672
1.667
1.691
1.701
1.691
1.681
1.681
1.686
1.667
1.632
1.642
1.652
1.642
1.632
1.632
1.657
1.662
1.632
1.637
1.657
1.657
1.642
1.628
1.632
1.642
1.623
1.613
1.632
1.647
1.642
1.632
1.632
1.642
1.628
1.608
1.623
1.632
1.623
1.613
1.613
1.628
1.628
1.603
1.603
1.628
1.628
1.623
1.618
1.632
1.647
1.623
1.618
1.632
1.642
1.628
1.618
1.618
1.637
1.618
1.593
1.608
1.628
1.623
1.618
1.618
1.642
1.662
1.647
1.662
1.696
1.701
1.691
1.676
1.676
1.676
1.637
1.613
1.608
1.598
1.579
1.554
1.544
1.554
1.53
1.5
1.505
1.525
1.53
1.535
1.549
1.588
1.613
1.603
1.623
1.657
1.667
1.657
1.647
1.662
1.672
1.647
1.642
1.657
1.667
1.667
1.662
1.667
1.681
1.662
1.642
1.657
1.672
1.672
1.662
1.662
1.676
1.676
1.652
1.667
1.691
1.691
1.681
1.676
1.696
1.706
1.676
1.672
1.691
1.696
1.686
1.676
1.686
1.701
1.691
1.676
1.701
1.72
1.711
1.701
1.701
1.711
1.711
1.681
1.686
1.706
1.701
1.686
1.676
1.696
1.706
1.681
1.676
1.701
1.716
1.711
1.706
1.716
1.73
1.711
1.686
1.706
1.72
1.706
1.696
1.696
1.716
1.72
1.696
1.706
1.735
1.74
1.73
1.725
1.74
1.745
1.711
1.701
1.716
1.725
1.725
1.725
1.74
1.76
1.74
1.716
1.73
1.74
1.735
1.72
1.72
1.74
1.74
1.716
1.72
1.74
1.73
1.711
1.701
1.716
1.73
1.706
1.696
1.706
1.701
1.681
1.662
1.662
1.672
1.657
1.642
1.662
1.676
1.667
1.652
1.647
1.652
1.642
1.608
1.613
1.632
1.632
1.623
1.618
1.632
1.647
1.623
1.618
1.642
1.652
1.642
1.637
1.637
1.652
1.632
1.613
1.628
1.642
1.637
1.628
1.632
1.657
1.652
1.628
1.632
1.652
1.647
1.632
1.618
1.632
1.647
1.628
1.628
1.657
1.672
1.662
1.652
1.657
1.672
1.652
1.628
1.642
1.662
1.657
1.652
1.657
1.681
1.686
1.662
1.672
1.691
1.691
1.676
1.672
1.681
1.686
1.652
1.647
1.667
1.676
1.676
1.672
1.691
1.706
1.686
1.662
1.686
1.701
1.686
1.672
1.662
1.672
1.657
1.628
1.637
1.657
1.652
1.642
1.637
1.657
1.672
1.647
1.642
1.662
1.662
1.642
1.628
1.632
1.642
1.623
1.598
1.613
1.628
1.618
1.608
1.613
1.637
1.642
1.618
1.618
1.637
1.637
1.632
1.637
1.647
1.657
1.632
1.628
1.647
1.647
1.632
1.613
1.618
1.632
1.613
1.603
1.618
1.632
1.628
1.623
1.628
1.647
1.642
1.623
1.642
1.672
1.681
1.672
1.667
1.686
1.691
1.662
1.647
1.652
1.647
1.623
1.598
1.579
1.574
1.535
1.505
1.51
1.52
1.51
1.505
1.515
1.549
1.564
1.559
1.584
1.623
1.632
1.637
1.647
1.667
1.681
1.662
1.657
1.676
1.681
1.672
1.662
1.667
1.676
1.662
1.647
1.667
1.681
1.672
1.662
1.662
1.681
1.676
1.652
1.667
1.691
1.691
1.686
1.681
1.696
1.701
1.672
1.667
1.681
1.691
1.676
1.676
1.691
1.716
1.706
1.696
1.716
1.73
1.716
1.696
1.691
1.706
1.691
1.667
1.676
1.701
1.706
1.696
1.691
1.706
1.716
1.691
1.691
1.716
1.716
1.706
1.701
1.711
1.725
1.701
1.686
1.706
1.72
1.725
1.72
1.725
1.745
1.74
1.716
1.725
1.745
1.74
1.735
1.74
1.76
1.764
1.735
1.73
1.75
1.755
1.75
1.74
1.75
1.764
1.74
1.716
1.725
1.74
1.74
1.73
1.73
1.75
1.75
1.73
1.745
1.76
1.75
1.725
1.706
1.716
1.711
1.681
1.676
1.691
1.696
1.686
1.681
1.696
1.711
1.686
1.667
1.681
1.686
1.672
1.652
1.647
1.657
1.647
1.623
1.637
1.657
1.652
1.637
1.632
1.652
1.657
1.632
1.632
1.657
1.667
1.657
1.647
1.647
1.657
1.632
1.613
1.623
1.632
1.623
1.623
1.632
1.657
1.657
1.632
1.642
1.662
1.657
1.642
1.632
1.647
1.652
1.623
1.623
1.637
1.647
1.642
1.637
1.652
1.672
1.652
1.642
1.662
1.667
1.652
1.632
1.637
1.662
1.662
1.642
1.662
1.691
1.691
1.672
1.662
1.672
1.672
1.637
1.637
1.657
1.667
1.667
1.672
1.691
1.711
1.691
1.672
1.686
1.696
1.686
1.672
1.672
1.691
1.686
1.667
1.681
1.701
1.701
1.681
1.676
1.691
1.696
1.667
1.662
1.686
1.691
1.676
1.662
1.662
1.676
1.652
1.642
1.657
1.672
1.657
1.647
1.642
1.662
1.652
1.623
1.632
1.657
1.657
1.642
1.637
1.652
1.652
1.628
1.632
1.657
1.662
1.652
1.647
1.657
1.662
1.632
1.613
1.628
1.642
1.637
1.637
1.647
1.676
1.672
1.647
1.652
1.662
1.647
1.623
1.613
1.628
1.637
1.613
1.623
1.652
1.662
1.662
1.662
1.676
1.701
1.691
1.681
1.701
1.711
1.701
1.686
1.686
1.691
1.667
1.628
1.618
1.618
1.593
1.564
1.549
1.554
1.549
1.52
1.525
1.559
1.584
1.588
1.598
1.623
1.642
1.623
1.618
1.647
1.667
1.662
1.657
1.667
1.686
1.681
1.652
1.662
1.681
1.676
1.667
1.672
1.691
1.701
1.681
1.691
1.711
1.716
1.701
1.686
1.696
1.701
1.676
1.667
1.686
1.696
1.686
1.676
1.686
1.711
1.711
1.691
1.706
1.725
1.716
1.706
1.701
1.711
1.701
1.667
1.662
1.686
1.696
1.691
1.686
1.706
1.725
1.711
1.701
1.72
1.73
1.716
1.701
1.706
1.72
1.706
1.686
1.701
1.72
1.72
1.711
1.711
1.73
1.735
1.711
1.72
1.745
1.75
1.745
1.74
1.755
1.769
1.745
1.73
1.75
1.76
1.75
1.74
1.745
1.769
1.76
1.74
1.755
1.769
1.764
1.755
1.75
1.764
1.755
1.72
1.72
1.735
1.73
1.72
1.716
1.73
1.745
1.735
1.735
1.76
1.769
1.75
1.725
1.725
1.73
1.711
1.676
1.681
1.696
1.691
1.686
1.691
1.706
1.701
1.676
1.676
1.696
1.686
1.672
1.662
1.667
1.676
1.647
1.628
1.642
1.657
1.652
1.647
1.657
1.672
1.662
1.637
1.652
1.667
1.657
1.647
1.637
1.652
1.657
1.632
1.637
1.657
1.657
1.642
1.632
1.647
1.662
1.637
1.632
1.652
1.667
1.657
1.647
1.652
1.662
1.647
1.623
1.637
1.657
1.657
1.647
1.647
1.662
1.662
1.637
1.642
1.667
1.676
1.667
1.667
1.681
1.696
1.667
1.652
1.672
1.676
1.662
1.642
1.647
1.662
1.652
1.632
1.647
1.662
1.652
1.637
1.632
1.652
1.657
1.637
1.647
1.672
1.672
1.667
1.667
1.676
1.681
1.652
1.642
1.662
1.676
1.667
1.652
1.662
1.681
1.676
1.657
1.672
1.686
1.676
1.652
1.647
1.662
1.667
1.642
1.652
1.676
1.686
1.681
1.681
1.696
1.711
1.681
1.672
1.691
1.701
1.691
1.681
1.691
1.701
1.676
1.647
1.652
1.657
1.647
1.632
1.637
1.657
1.657
1.637
1.647
1.667
1.667
1.652
1.642
1.657
1.662
1.628
1.613
1.628
1.642
1.637
1.632
1.647
1.672
1.662
1.647
1.662
1.676
1.667
1.647
1.637
1.647
1.637
1.618
1.628
1.657
1.657
1.642
1.632
1.642
1.657
1.632
1.628
1.647
1.657
1.652
1.652
1.667
1.686
1.676
1.657
1.676
1.696
1.691
1.681
1.681
1.706
1.706
1.681
1.686
1.711
1.706
1.686
1.672
1.667
1.647
1.598
1.559
1.554
1.544
1.515
1.496
1.5
1.525
1.53
1.535
1.574
1.618
1.637
1.642
1.657
1.686
1.691
1.662
1.672
1.691
1.691
1.681
1.672
1.686
1.691
1.667
1.662
1.686
1.696
1.686
1.681
1.696
1.716
1.706
1.686
1.706
1.725
1.716
1.701
1.701
1.716
1.711
1.676
1.676
1.696
1.701
1.696
1.691
1.711
1.72
1.696
1.686
1.706
1.716
1.711
1.706
1.716
1.735
1.716
1.696
1.706
1.716
1.706
1.696
1.701
1.725
1.725
1.701
1.711
1.73
1.73
1.716
1.706
1.716
1.725
1.701
1.701
1.73
1.745
1.745
1.74
1.75
1.764
1.75
1.725
1.735
1.75
1.745
1.74
1.75
1.774
1.774
1.755
1.764
1.779
1.769
1.745
1.73
1.745
1.76
1.745
1.75
1.779
1.789
1.779
1.769
1.769
1.774
1.75
1.725
1.745
1.76
1.75
1.74
1.745
1.769
1.769
1.75
1.755
1.769
1.76
1.745
1.735
1.735
1.735
1.701
1.691
1.716
1.73
1.72
1.701
1.706
1.711
1.686
1.657
1.662
1.672
1.657
1.642
1.642
1.662
1.662
1.637
1.647
1.667
1.667
1.652
1.642
1.657
1.662
1.628
1.623
1.642
1.652
1.647
1.647
1.672
1.696
1.681
1.662
1.676
1.691
1.676
1.662
1.662
1.676
1.667
1.637
1.652
1.676
1.672
1.657
1.652
1.667
1.672
1.642
1.642
1.667
1.681
1.667
1.662
1.676
1.686
1.662
1.642
1.657
1.676
1.662
1.652
1.657
1.676
1.672
1.652
1.667
1.691
1.686
1.662
1.647
1.667
1.681
1.662
1.657
1.681
1.686
1.681
1.676
1.686
1.696
1.676
1.657
1.672
1.686
1.676
1.657
1.657
1.672
1.667
1.632
1.642
1.667
1.667
1.657
1.652
1.672
1.681
1.652
1.647
1.672
1.681
1.676
1.672
1.681
1.696
1.676
1.652
1.662
1.672
1.672
1.667
1.676
1.706
1.706
1.672
1.681
1.701
1.696
1.676
1.667
1.681
1.691
1.667
1.672
1.696
1.711
1.701
1.701
1.706
1.716
1.696
1.681
1.696
1.701
1.686
1.667
1.662
1.676
1.667
1.637
1.647
1.672
1.672
1.662
1.657
1.667
1.672
1.642
1.642
1.667
1.672
1.657
1.642
1.657
1.676
1.662
1.652
1.667
1.681
1.672
1.657
1.657
1.667
1.652
1.618
1.628
1.642
1.647
1.647
1.652
1.676
1.686
1.662
1.657
1.672
1.672
1.657
1.642
1.647
1.662
1.642
1.632
1.652
1.672
1.667
1.662
1.667
1.681
1.676
1.657
1.672
1.696
1.696
1.696
1.696
1.72
1.73
1.706
1.706
1.72
1.711
1.681
1.647
1.632
1.623
1.579
1.544
1.549
1.559
1.554
1.544
1.549
1.574
1.579
1.564
1.584
1.623
1.637
1.637
1.642
1.667
1.686
1.662
1.662
1.681
1.686
1.676
1.672
1.696
1.716
1.696
1.676
1.696
1.711
1.701
1.686
1.691
1.711
1.711
1.686
1.701
1.72
1.72
1.701
1.696
1.706
1.711
1.686
1.681
1.706
1.711
1.701
1.696
1.711
1.73
1.711
1.696
1.716
1.735
1.725
1.716
1.716
1.735
1.73
1.706
1.72
1.74
1.74
1.72
1.716
1.73
1.735
1.711
1.711
1.735
1.75
1.735
1.73
1.74
1.76
1.735
1.72
1.74
1.755
1.75
1.74
1.75
1.764
1.755
1.73
1.74
1.764
1.769
1.764
1.769
1.784
1.789
1.76
1.755
1.774
1.774
1.76
1.75
1.755
1.769
1.75
1.735
1.76
1.779
1.779
1.779
1.789
1.813
1.804
1.774
1.774
1.784
1.769
1.755
1.745
1.76
1.76
1.735
1.745
1.769
1.764
1.735
1.706
1.706
1.716
1.696
1.681
1.701
1.72
1.72
1.706
1.711
1.72
1.701
1.662
1.667
1.676
1.676
1.667
1.667
1.681
1.691
1.662
1.657
1.676
1.681
1.667
1.657
1.667
1.681
1.657
1.642
1.667
1.676
1.667
1.657
1.657
1.672
1.662
1.637
1.647
1.667
1.662
1.652
1.652
1.667
1.672
1.642
1.637
1.662
1.667
1.652
1.642
1.647
1.657
1.632
1.628
1.647
1.667
1.667
1.667
1.672
1.696
1.686
1.662
1.672
1.686
1.667
1.647
1.642
1.662
1.672
1.652
1.657
1.681
1.691
1.681
1.676
1.686
1.691
1.662
1.642
1.662
1.681
1.676
1.667
1.662
1.672
1.662
1.637
1.647
1.672
1.667
1.662
1.662
1.681
1.686
1.667
1.672
1.686
1.681
1.667
1.662
1.676
1.691
1.672
1.657
1.672
1.681
1.672
1.662
1.667
1.686
1.681
1.652
1.667
1.681
1.672
1.652
1.647
1.667
1.672
1.647
1.657
1.681
1.681
1.676
1.667
1.681
1.696
1.676
1.672
1.701
1.716
1.706
1.691
1.691
1.701
1.691
1.662
1.672
1.696
1.696
1.691
1.696
1.716
1.72
1.696
1.696
1.711
1.701
1.672
1.652
1.657
1.667
1.637
1.623
1.637
1.652
1.642
1.642
1.652
1.676
1.676
1.657
1.672
1.691
1.681
1.667
1.657
1.667
1.662
1.632
1.637
1.657
1.667
1.662
1.652
1.657
1.667
1.637
1.623
1.642
1.652
1.647
1.637
1.647
1.667
1.657
1.637
1.647
1.667
1.657
1.647
1.642
1.662
1.667
1.637
1.642
1.667
1.676
1.676
1.681
1.701
1.72
1.701
1.696
1.72
1.73
1.716
1.696
1.696
1.701
1.681
1.642
1.637
1.632
1.603
1.574
1.559
1.554
1.544
1.51
1.515
1.54
1.554
1.559
1.574
1.608
1.642
1.637
1.642
1.676
1.691
1.681
1.667
1.672
1.691
1.681
1.662
1.681
1.701
1.701
1.696
1.696
1.716
1.716
1.686
1.681
1.701
1.696
1.681
1.672
1.686
1.696
1.676
1.667
1.691
1.706
1.701
1.696
1.706
1.725
1.711
1.681
1.696
1.716
1.716
1.701
1.701
1.72
1.725
1.701
1.711
1.73
1.735
1.72
1.711
1.716
1.725
1.706
1.701
1.72
1.74
1.735
1.725
1.735
1.75
1.74
1.716
1.73
1.75
1.745
1.735
1.735
1.75
1.75
1.725
1.725
1.75
1.755
1.75
1.745
1.76
1.774
1.755
1.755
1.779
1.789
1.774
1.764
1.764
1.784
1.774
1.75
1.764
1.784
1.774
1.764
1.769
1.789
1.789
1.764
1.764
1.789
1.794
1.789
1.774
1.784
1.789
1.76
1.745
1.76
1.764
1.745
1.735
1.74
1.76
1.745
1.725
1.745
1.76
1.745
1.725
1.72
1.725
1.72
1.686
1.686
1.701
1.701
1.691
1.681
1.686
1.691
1.662
1.652
1.672
1.681
1.672
1.662
1.672
1.691
1.672
1.647
1.657
1.667
1.652
1.637
1.637
1.652
1.647
1.623
1.632
1.657
1.662
1.652
1.647
1.662
1.681
1.652
1.642
1.662
1.672
1.657
1.642
1.647
1.662
1.642
1.613
1.628
1.652
1.652
1.652
1.662
1.681
1.681
1.657
1.667
1.686
1.686
1.667
1.657
1.667
1.681
1.652
1.642
1.662
1.672
1.667
1.662
1.672
1.691
1.681
1.662
1.672
1.686
1.676
1.662
1.662
1.676
1.676
1.652
1.657
1.681
1.681
1.667
1.657
1.667
1.672
1.647
1.647
1.672
1.686
1.676
1.667
1.672
1.681
1.667
1.642
1.657
1.676
1.667
1.657
1.657
1.686
1.686
1.657
1.657
1.681
1.676
1.667
1.662
1.667
1.672
1.642
1.632
1.657
1.672
1.667
1.662
1.672
1.691
1.676
1.657
1.667
1.676
1.657
1.632
1.628
1.642
1.647
1.628
1.642
1.676
1.686
1.686
1.686
1.706
1.72
1.701
1.691
1.701
1.706
1.691
1.676
1.686
1.701
1.686
1.667
1.686
1.711
1.711
1.701
1.701
1.716
1.716
1.676
1.672
1.676
1.667
1.647
1.632
1.642
1.647
1.623
1.618
1.642
1.657
1.652
1.637
1.642
1.652
1.632
1.608
1.628
1.642
1.642
1.632
1.637
1.657
1.652
1.628
1.632
1.657
1.662
1.652
1.652
1.672
1.686
1.667
1.657
1.676
1.676
1.657
1.642
1.642
1.657
1.642
1.623
1.642
1.662
1.662
1.657
1.662
1.686
1.681
1.652
1.662
1.686
1.686
1.676
1.676
1.701
1.72
1.706
1.701
1.716
1.716
1.696
1.676
1.681
1.691
1.662
1.623
1.618
1.618
1.598
1.569
1.544
1.544
1.535
1.51
1.53
1.569
1.588
1.593
1.608
1.642
1.667
1.652
1.657
1.686
1.696
1.686
1.681
1.691
1.706
1.686
1.672
1.691
1.706
1.696
1.681
1.681
1.696
1.696
1.667
1.681
1.706
1.716
1.706
1.701
1.72
1.73
1.711
1.701
1.716
1.716
1.701
1.696
1.701
1.711
1.686
1.667
1.691
1.716
1.711
1.711
1.711
1.725
1.716
1.686
1.691
1.716
1.716
1.701
1.696
1.716
1.725
1.706
1.701
1.72
1.725
1.716
1.706
1.716
1.725
1.706
1.691
1.716
1.74
1.735
1.73
1.735
1.75
1.75
1.72
1.73
1.75
1.75
1.745
1.74
1.755
1.764
1.735
1.73
1.755
1.76
1.75
1.745
1.755
1.784
1.769
1.755
1.769
1.784
1.784
1.774
1.774
1.789
1.784
1.755
1.769
1.789
1.779
1.764
1.755
1.774
1.779
1.75
1.745
1.76
1.764
1.745
1.735
1.74
1.755
1.735
1.716
1.725
1.73
1.716
1.701
1.696
1.711
1.701
1.672
1.676
1.696
1.691
1.681
1.672
1.676
1.676
1.647
1.642
1.667
1.672
1.657
1.652
1.667
1.686
1.672
1.652
1.667
1.676
1.662
1.647
1.647
1.672
1.667
1.642
1.657
1.681
1.681
1.662
1.652
1.662
1.662
1.632
1.623
1.647
1.657
1.652
1.647
1.662
1.681
1.662
1.647
1.662
1.667
1.657
1.642
1.642
1.662
1.662
1.642
1.657
1.681
1.686
1.681
1.681
1.696
1.696
1.662
1.657
1.681
1.686
1.676
1.667
1.676
1.691
1.672
1.652
1.667
1.676
1.672
1.657
1.662
1.686
1.686
1.667
1.676
1.691
1.691
1.676
1.667
1.672
1.676
1.647
1.642
1.667
1.672
1.662
1.657
1.672
1.696
1.681
1.667
1.681
1.701
1.691
1.672
1.667
1.676
1.662
1.632
1.642
1.667
1.672
1.667
1.667
1.691
1.701
1.676
1.667
1.681
1.676
1.657
1.637
1.642
1.652
1.642
1.632
1.657
1.681
1.676
1.667
1.662
1.672
1.662
1.637
1.647
1.667
1.667
1.667
1.672
1.696
1.706
1.676
1.672
1.686
1.686
1.672
1.662
1.676
1.701
1.686
1.681
1.706
1.725
1.72
1.711
1.711
1.72
1.706
1.672
1.681
1.706
1.701
1.691
1.686
1.701
1.706
1.672
1.667
1.681
1.681
1.667
1.657
1.667
1.681
1.662
1.647
1.667
1.681
1.667
1.647
1.647
1.662
1.647
1.623
1.637
1.662
1.662
1.657
1.652
1.672
1.676
1.647
1.642
1.667
1.667
1.652
1.642
1.652
1.667
1.647
1.632
1.652
1.672
1.662
1.652
1.652
1.667
1.662
1.637
1.652
1.672
1.672
1.662
1.662
1.681
1.691
1.667
1.672
1.696
1.701
1.696
1.691
1.701
1.72
1.706
1.681
1.691
1.696
1.676
1.652
1.632
1.632
1.603
1.559
1.559
1.569
1.564
1.554
1.549
1.569
1.579
1.564
1.574
1.608
1.628
1.632
1.637
1.662
1.686
1.672
1.662
1.686
1.701
1.691
1.681
1.686
1.706
1.701
1.676
1.681
1.696
1.696
1.686
1.681
1.691
1.701
1.676
1.676
1.696
1.696
1.681
1.676
1.686
1.706
1.691
1.676
1.701
1.716
1.711
1.701
1.701
1.716
1.711
1.696
1.711
1.73
1.73
1.72
1.716
1.73
1.73
1.696
1.686
1.701
1.711
1.701
1.701
1.716
1.735
1.72
1.711
1.73
1.74
1.73
1.725
1.735
1.75
1.74
1.711
1.725
1.745
1.74
1.725
1.725
1.745
1.76
1.74
1.75
1.774
1.779
1.764
1.755
1.764
1.779
1.755
1.745
1.774
1.794
1.789
1.774
1.774
1.784
1.774
1.745
1.76
1.774
1.769
1.76
1.764
1.784
1.794
1.764
1.76
1.779
1.789
1.784
1.774
1.774
1.784
1.76
1.745
1.755
1.76
1.745
1.73
1.735
1.755
1.745
1.72
1.73
1.745
1.735
1.716
1.711
1.72
1.72
1.686
1.672
1.686
1.686
1.681
1.676
1.686
1.696
1.667
1.647
1.667
1.676
1.667
1.652
1.652
1.667
1.657
1.637
1.657
1.681
1.686
1.672
1.667
1.681
1.691
1.667
1.667
1.681
1.681
1.672
1.657
1.672
1.681
1.662
1.647
1.667
1.672
1.662
1.647
1.647
1.657
1.642
1.618
1.637
1.662
1.667
1.662
1.662
1.676
1.681
1.647
1.642
1.662
1.667
1.662
1.657
1.672
1.686
1.667
1.647
1.667
1.676
1.667
1.657
1.662
1.681
1.681
1.662
1.672
1.686
1.681
1.667
1.667
1.686
1.691
1.672
1.672
1.696
1.696
1.686
1.681
1.696
1.711
1.681
1.662
1.676
1.686
1.676
1.662
1.667
1.686
1.676
1.652
1.667
1.691
1.681
1.672
1.667
1.681
1.681
1.652
1.657
1.681
1.691
1.681
1.672
1.672
1.681
1.662
1.652
1.672
1.681
1.672
1.667
1.672
1.701
1.696
1.672
1.691
1.716
1.72
1.711
1.701
1.711
1.701
1.662
1.657
1.672
1.672
1.657
1.647
1.662
1.681
1.667
1.657
1.686
1.706
1.706
1.701
1.711
1.725
1.711
1.681
1.686
1.701
1.691
1.681
1.686
1.711
1.725
1.701
1.706
1.725
1.72
1.706
1.686
1.691
1.701
1.672
1.657
1.672
1.676
1.662
1.647
1.657
1.681
1.676
1.662
1.681
1.701
1.686
1.672
1.662
1.681
1.676
1.647
1.652
1.681
1.691
1.686
1.681
1.696
1.706
1.681
1.672
1.691
1.706
1.696
1.681
1.681
1.691
1.676
1.657
1.672
1.686
1.676
1.667
1.667
1.686
1.696
1.662
1.662
1.686
1.691
1.681
1.676
1.696
1.72
1.706
1.706
1.735
1.76
1.76
1.76
1.764
1.769
1.745
1.701
1.691
1.681
1.647
1.613
1.588
1.584
1.569
1.535
1.535
1.559
1.574
1.574
1.579
1.608
1.642
1.637
1.652
1.686
1.706
1.701
1.691
1.696
1.711
1.691
1.667
1.681
1.711
1.711
1.701
1.701
1.72
1.725
1.696
1.696
1.716
1.72
1.711
1.701
1.706
1.711
1.681
1.672
1.696
1.711
1.711
1.706
1.72
1.745
1.735
1.706
1.716
1.73
1.72
1.711
1.706
1.72
1.725
1.701
1.701
1.72
1.725
1.716
1.711
1.73
1.745
1.72
1.716
1.73
1.74
1.725
1.706
1.716
1.735
1.725
1.711
1.73
1.75
1.745
1.735
1.74
1.75
1.745
1.716
1.725
1.745
1.75
1.74
1.74
1.755
1.774
1.75
1.74
1.755
1.76
1.75
1.74
1.755
1.779
1.769
1.75
1.769
1.794
1.789
1.774
1.769
1.784
1.784
1.755
1.764
1.789
1.794
1.784
1.774
1.774
1.779
1.75
1.74
1.755
1.76
1.75
1.74
1.75
1.764
1.75
1.72
1.73
1.74
1.73
1.711
1.706
1.716
1.706
1.672
1.676
1.696
1.686
1.672
1.662
1.672
1.681
1.652
1.642
1.662
1.681
1.672
1.657
1.657
1.672
1.657
1.632
1.642
1.662
1.657
1.642
1.642
1.662
1.662
1.632
1.637
1.657
1.662
1.652
1.642
1.647
1.652
1.618
1.603
1.618
1.628
1.618
1.618
1.632
1.657
1.642
1.623
1.632
1.652
1.652
1.637
1.632
1.652
1.652
1.628
1.637
1.652
1.652
1.642
1.632
1.647
1.662
1.637
1.628
1.647
1.657
1.647
1.637
1.642
1.662
1.652
1.637
1.652
1.662
1.652
1.637
1.637
1.652
1.647
1.618
1.628
1.652
1.652
1.642
1.637
1.652
1.662
1.642
1.642
1.662
1.672
1.652
1.637
1.642
1.657
1.642
1.618
1.632
1.652
1.647
1.642
1.642
1.662
1.662
1.632
1.632
1.652
1.652
1.642
1.628
1.628
1.637
1.618
1.623
1.657
1.681
1.681
1.676
1.691
1.706
1.686
1.657
1.662
1.662
1.647
1.632
1.637
1.662
1.667
1.647
1.657
1.681
1.686
1.676
1.672
1.691
1.701
1.676
1.667
1.681
1.686
1.667
1.652
1.652
1.662
1.642
1.623
1.632
1.652
1.652
1.642
1.647
1.662
1.662
1.632
1.632
1.647
1.642
1.628
1.618
1.632
1.642
1.618
1.618
1.647
1.657
1.652
1.642
1.647
1.657
1.637
1.618
1.628
1.642
1.642
1.632
1.632
1.657
1.657
1.628
1.632
1.652
1.652
1.642
1.632
1.642
1.652
1.623
1.613
1.637
1.647
1.642
1.632
1.647
1.672
1.667
1.652
1.672
1.691
1.686
1.667
1.657
1.672
1.672
1.642
1.637
1.637
1.618
1.588
1.559
1.554
1.549
1.505
1.486
1.51
1.53
1.54
1.549
1.579
1.613
1.613
1.603
1.632
1.657
1.657
1.647
1.647
1.667
1.662
1.637
1.647
1.667
1.667
1.657
1.652
1.667
1.681
1.657
1.647
1.672
1.681
1.672
1.667
1.681
1.696
1.681
1.662
1.681
1.701
1.696
1.681
1.681
1.701
1.696
1.667
1.672
1.691
1.691
1.686
1.686
1.706
1.716
1.691
1.686
1.706
1.711
1.696
1.681
1.686
1.701
1.686
1.672
1.691
1.716
1.716
1.706
1.711
1.725
1.725
1.696
1.696
1.711
1.706
1.691
1.676
1.686
1.701
1.681
1.676
1.706
1.716
1.711
1.706
1.72
1.74
1.725
1.711
1.725
1.75
1.75
1.745
1.745
1.755
1.755
1.725
1.725
1.75
1.745
1.735
1.73
1.755
1.769
1.75
1.745
1.764
1.769
1.75
1.735
1.735
1.75
1.73
1.711
1.725
1.745
1.745
1.735
1.725
1.74
1.73
1.706
1.716
1.74
1.73
1.711
1.701
1.706
1.706
1.667
1.657
1.672
1.676
1.662
1.652
1.657
1.672
1.657
1.637
1.652
1.667
1.657
1.652
1.657
1.681
1.672
1.637
1.632
1.642
1.637
1.623
1.613
1.632
1.647
1.628
1.632
1.662
1.672
1.662
1.647
1.647
1.657
1.637
1.623
1.637
1.652
1.642
1.632
1.632
1.647
1.642
1.613
1.623
1.647
1.647
1.642
1.637
1.647
1.652
1.623
1.628
1.652
1.662
1.652
1.642
1.652
1.672
1.652
1.632
1.652
1.667
1.657
1.647
1.652
1.676
1.672
1.642
1.647
1.662
1.672
1.667
1.662
1.672
1.676
1.647
1.637
1.652
1.657
1.647
1.637
1.652
1.672
1.662
1.647
1.662
1.672
1.652
1.632
1.632
1.652
1.652
1.632
1.642
1.672
1.667
1.657
1.652
1.667
1.667
1.637
1.632
1.652
1.662
1.657
1.657
1.676
1.696
1.681
1.667
1.681
1.691
1.681
1.672
1.676
1.691
1.686
1.662
1.676
1.701
1.706
1.691
1.681
1.691
1.696
1.672
1.667
1.676
1.667
1.642
1.623
1.628
1.637
1.623
1.608
1.632
1.652
1.657
1.657
1.657
1.672
1.662
1.628
1.637
1.652
1.647
1.637
1.632
1.652
1.662
1.637
1.632
1.652
1.657
1.647
1.637
1.642
1.657
1.637
1.618
1.637
1.657
1.652
1.642
1.642
1.657
1.647
1.628
1.637
1.657
1.657
1.642
1.637
1.652
1.652
1.623
1.613
1.637
1.647
1.652
1.657
1.672
1.691
1.686
1.681
1.711
1.725
1.711
1.691
1.681
1.686
1.657
1.603
1.584
1.579
1.559
1.535
1.52
1.54
1.544
1.525
1.535
1.564
1.584
1.588
1.593
1.623
1.652
1.647
1.637
1.662
1.676
1.672
1.662
1.662
1.681
1.681
1.657
1.667
1.691
1.686
1.672
1.667
1.686
1.696
1.672
1.672
1.696
1.706
1.696
1.686
1.696
1.711
1.696
1.686
1.706
1.716
1.706
1.691
1.691
1.701
1.691
1.662
1.667
1.691
1.691
1.686
1.686
1.706
1.711
1.686
1.686
1.711
1.716
1.706
1.696
1.706
1.72
1.701
1.686
1.716
1.73
1.725
1.716
1.72
1.74
1.73
1.701
1.711
1.73
1.73
1.72
1.725
1.745
1.75
1.725
1.725
1.745
1.75
1.735
1.72
1.73
1.74
1.716
1.701
1.72
1.735
1.725
1.725
1.735
1.76
1.755
1.73
1.745
1.769
1.764
1.755
1.755
1.774
1.779
1.75
1.75
1.769
1.769
1.755
1.74
1.74
1.745
1.725
1.706
1.72
1.735
1.725
1.716
1.72
1.745
1.735
1.706
1.711
1.72
1.711
1.691
1.681
1.691
1.696
1.667
1.672
1.691
1.691
1.681
1.667
1.676
1.686
1.662
1.642
1.657
1.672
1.662
1.647
1.652
1.672
1.662
1.642
1.652
1.676
1.676
1.667
1.657
1.672
1.676
1.642
1.637
1.652
1.657
1.647
1.642
1.652
1.667
1.647
1.637
1.657
1.672
1.662
1.652
1.647
1.657
1.652
1.637
1.652
1.667
1.657
1.647
1.642
1.657
1.667
1.642
1.642
1.662
1.662
1.652
1.642
1.662
1.676
1.647
1.628
1.642
1.657
1.647
1.637
1.642
1.662
1.662
1.647
1.667
1.696
1.691
1.676
1.667
1.676
1.672
1.637
1.628
1.647
1.652
1.647
1.647
1.662
1.672
1.652
1.637
1.662
1.676
1.667
1.652
1.652
1.667
1.662
1.637
1.647
1.667
1.662
1.662
1.667
1.681
1.686
1.657
1.647
1.662
1.652
1.637
1.628
1.637
1.662
1.647
1.647
1.672
1.691
1.686
1.676
1.672
1.681
1.667
1.642
1.652
1.672
1.667
1.662
1.662
1.676
1.681
1.662
1.667
1.696
1.701
1.691
1.681
1.691
1.696
1.662
1.637
1.647
1.652
1.637
1.623
1.623
1.642
1.632
1.608
1.628
1.652
1.647
1.637
1.637
1.652
1.657
1.628
1.628
1.652
1.657
1.647
1.642
1.652
1.667
1.642
1.628
1.647
1.657
1.647
1.632
1.642
1.662
1.657
1.632
1.642
1.652
1.642
1.628
1.623
1.632
1.637
1.613
1.613
1.637
1.652
1.652
1.647
1.657
1.676
1.662
1.652
1.681
1.696
1.691
1.686
1.696
1.711
1.701
1.676
1.686
1.696
1.676
1.642
1.618
1.613
1.588
1.544
1.525
1.53
1.52
1.505
1.5
1.53
1.564
1.564
1.569
1.608
1.642
1.647
1.642
1.647
1.672
1.672
1.657
1.681
1.711
1.711
1.706
1.706
1.72
1.72
1.686
1.681
1.701
1.711
1.701
1.696
1.706
1.716
1.691
1.676
1.691
1.706
1.701
1.696
1.701
1.72
1.711
1.686
1.696
1.711
1.706
1.696
1.701
1.72
1.725
1.701
1.701
1.725
1.72
1.711
1.701
1.72
1.73
1.711
1.701
1.725
1.74
1.73
1.716
1.72
1.74
1.735
1.711
1.72
1.74
1.735
1.725
1.72
1.735
1.735
1.706
1.711
1.735
1.74
1.73
1.725
1.745
1.76
1.73
1.72
1.735
1.75
1.745
1.745
1.755
1.774
1.764
1.745
1.76
1.774
1.769
1.755
1.75
1.769
1.769
1.745
1.745
1.764
1.769
1.76
1.75
1.764
1.779
1.76
1.75
1.774
1.784
1.774
1.755
1.755
1.76
1.745
1.72
1.735
1.76
1.76
1.75
1.745
1.76
1.755
1.716
1.706
1.716
1.706
1.686
1.672
1.686
1.701
1.681
1.672
1.691
1.701
1.686
1.676
1.681
1.691
1.672
1.637
1.652
1.672
1.672
1.662
1.657
1.672
1.667
1.632
1.628
1.647
1.647
1.632
1.628
1.642
1.657
1.637
1.637
1.667
1.681
1.672
1.657
1.662
1.681
1.672
1.652
1.667
1.686
1.676
1.662
1.657
1.672
1.672
1.642
1.642
1.662
1.662
1.652
1.647
1.662
1.681
1.667
1.662
1.676
1.681
1.667
1.662
1.672
1.691
1.676
1.657
1.676
1.696
1.691
1.676
1.672
1.686
1.681
1.657
1.657
1.681
1.686
1.676
1.667
1.681
1.691
1.667
1.657
1.676
1.686
1.672
1.662
1.667
1.686
1.676
1.657
1.672
1.701
1.696
1.686
1.681
1.696
1.691
1.657
1.662
1.681
1.681
1.672
1.662
1.672
1.681
1.652
1.642
1.657
1.672
1.667
1.662
1.672
1.691
1.686
1.672
1.686
1.696
1.686
1.667
1.662
1.676
1.681
1.662
1.672
1.701
1.711
1.711
1.706
1.72
1.72
1.691
1.672
1.681
1.686
1.672
1.662
1.672
1.691
1.676
1.652
1.667
1.676
1.667
1.657
1.657
1.676
1.676
1.647
1.652
1.672
1.672
1.662
1.652
1.662
1.672
1.647
1.642
1.667
1.676
1.662
1.647
1.647
1.667
1.647
1.628
1.642
1.657
1.652
1.642
1.637
1.652
1.647
1.618
1.623
1.647
1.657
1.652
1.652
1.672
1.686
1.657
1.642
1.662
1.667
1.657
1.642
1.647
1.667
1.662
1.652
1.676
1.701
1.711
1.711
1.72
1.735
1.735
1.701
1.701
1.716
1.706
1.686
1.662
1.657
1.652
1.608
1.584
1.584
1.574
1.549
1.525
1.53
1.549
1.544
1.54
1.569
1.598
1.603
1.608
1.623
1.652
1.657
1.642
1.652
1.676
1.686
1.686
1.691
1.711
1.725
1.706
1.701
1.72
1.725
1.716
1.706
1.711
1.725
1.711
1.686
1.706
1.72
1.716
1.701
1.696
1.711
1.711
1.686
1.696
1.72
1.725
1.716
1.706
1.716
1.725
1.701
1.696
1.716
1.725
1.72
1.716
1.725
1.73
1.716
1.691
1.706
1.73
1.73
1.72
1.72
1.735
1.725
1.701
1.706
1.725
1.725
1.716
1.711
1.725
1.73
1.711
1.706
1.725
1.73
1.72
1.716
1.73
1.76
1.755
1.745
1.76
1.774
1.764
1.75
1.75
1.774
1.774
1.75
1.76
1.779
1.779
1.764
1.755
1.769
1.779
1.76
1.755
1.779
1.789
1.784
1.774
1.784
1.794
1.774
1.755
1.769
1.779
1.769
1.76
1.755
1.76
1.755
1.725
1.73
1.75
1.76
1.75
1.745
1.755
1.755
1.72
1.706
1.716
1.72
1.706
1.696
1.706
1.725
1.711
1.691
1.706
1.72
1.706
1.681
1.676
1.686
1.676
1.647
1.652
1.672
1.667
1.652
1.652
1.672
1.691
1.667
1.657
1.676
1.681
1.676
1.662
1.667
1.676
1.652
1.632
1.652
1.672
1.667
1.657
1.657
1.672
1.662
1.632
1.642
1.667
1.672
1.662
1.662
1.676
1.691
1.662
1.652
1.667
1.667
1.652
1.642
1.652
1.667
1.657
1.642
1.667
1.686
1.676
1.667
1.667
1.686
1.681
1.662
1.662
1.681
1.681
1.667
1.662
1.676
1.681
1.657
1.657
1.676
1.681
1.672
1.662
1.667
1.681
1.662
1.642
1.662
1.681
1.676
1.662
1.667
1.681
1.676
1.647
1.652
1.672
1.676
1.667
1.662
1.676
1.686
1.662
1.657
1.672
1.681
1.672
1.657
1.662
1.676
1.667
1.652
1.681
1.696
1.686
1.676
1.676
1.691
1.681
1.647
1.652
1.672
1.672
1.662
1.662
1.676
1.686
1.657
1.652
1.672
1.676
1.667
1.662
1.667
1.686
1.667
1.652
1.672
1.691
1.681
1.676
1.676
1.696
1.691
1.662
1.667
1.691
1.696
1.686
1.681
1.701
1.711
1.681
1.672
1.681
1.686
1.667
1.657
1.667
1.681
1.662
1.642
1.657
1.676
1.667
1.657
1.657
1.672
1.662
1.632
1.642
1.657
1.652
1.637
1.628
1.637
1.652
1.632
1.637
1.667
1.676
1.662
1.652
1.652
1.662
1.642
1.628
1.647
1.667
1.667
1.662
1.667
1.686
1.676
1.642
1.652
1.672
1.667
1.652
1.652
1.672
1.681
1.647
1.632
1.652
1.662
1.652
1.642
1.662
1.696
1.696
1.696
1.725
1.745
1.735
1.72
1.716
1.72
1.701
1.657
1.642
1.637
1.603
1.564
1.535
1.53
1.525
1.496
1.496
1.525
1.549
1.564
1.579
1.608
1.637
1.632
1.623
1.652
1.676
1.676
1.667
1.667
1.691
1.686
1.667
1.676
1.701
1.701
1.696
1.696
1.711
1.711
1.681
1.681
1.696
1.701
1.696
1.686
1.701
1.711
1.691
1.672
1.691
1.711
1.706
1.701
1.701
1.716
1.711
1.686
1.701
1.72
1.72
1.706
1.701
1.716
1.725
1.701
1.701
1.72
1.725
1.711
1.706
1.716
1.735
1.711
1.691
1.711
1.725
1.725
1.716
1.72
1.735
1.725
1.701
1.716
1.735
1.735
1.725
1.72
1.745
1.75
1.73
1.725
1.745
1.745
1.73
1.72
1.725
1.745
1.73
1.725
1.755
1.779
1.779
1.774
1.779
1.794
1.784
1.75
1.75
1.764
1.76
1.75
1.75
1.774
1.784
1.764
1.764
1.784
1.789
1.774
1.76
1.764
1.774
1.75
1.735
1.75
1.755
1.745
1.73
1.735
1.755
1.74
1.711
1.716
1.73
1.725
1.72
1.716
1.73
1.73
1.696
1.686
1.706
1.706
1.691
1.672
1.676
1.686
1.662
1.647
1.662
1.672
1.672
1.662
1.662
1.681
1.676
1.652
1.662
1.686
1.681
1.672
1.662
1.672
1.676
1.647
1.642
1.662
1.662
1.647
1.637
1.652
1.667
1.652
1.637
1.662
1.681
1.676
1.662
1.662
1.681
1.667
1.642
1.652
1.667
1.667
1.657
1.662
1.676
1.681
1.657
1.652
1.676
1.681
1.667
1.657
1.662
1.672
1.657
1.642
1.657
1.667
1.657
1.642
1.652
1.667
1.667
1.647
1.667
1.686
1.686
1.676
1.676
1.691
1.701
1.672
1.662
1.681
1.681
1.667
1.657
1.667
1.676
1.657
1.647
1.667
1.686
1.681
1.672
1.681
1.701
1.686
1.657
1.662
1.676
1.672
1.657
1.642
1.657
1.662
1.642
1.647
1.672
1.676
1.667
1.657
1.667
1.672
1.647
1.632
1.657
1.672
1.662
1.652
1.657
1.681
1.672
1.647
1.657
1.681
1.676
1.662
1.657
1.672
1.676
1.642
1.642
1.667
1.676
1.672
1.672
1.696
1.716
1.696
1.681
1.696
1.716
1.711
1.701
1.701
1.716
1.701
1.681
1.691
1.701
1.686
1.662
1.657
1.672
1.676
1.642
1.632
1.647
1.652
1.637
1.632
1.647
1.667
1.657
1.647
1.667
1.676
1.662
1.647
1.642
1.652
1.637
1.613
1.628
1.652
1.652
1.642
1.642
1.652
1.652
1.623
1.623
1.642
1.652
1.647
1.647
1.662
1.672
1.642
1.618
1.632
1.642
1.637
1.628
1.628
1.647
1.642
1.628
1.647
1.667
1.662
1.647
1.642
1.667
1.681
1.662
1.672
1.696
1.701
1.701
1.701
1.72
1.74
1.716
1.696
1.696
1.691
1.662
1.623
1.593
1.579
1.544
1.5
1.5
1.51
1.505
1.5
1.51
1.549
1.574
1.574
1.603
1.652
1.676
1.681
1.681
1.696
1.706
1.681
1.667
1.676
1.681
1.667
1.662
1.672
1.701
1.701
1.686
1.706
1.72
1.711
1.701
1.701
1.716
1.716
1.686
1.686
1.711
1.716
1.701
1.691
1.706
1.711
1.686
1.681
1.706
1.725
1.725
1.716
1.716
1.725
1.706
1.676
1.696
1.716
1.711
1.706
1.711
1.735
1.74
1.711
1.711
1.735
1.735
1.72
1.716
1.725
1.74
1.72
1.716
1.735
1.74
1.725
1.711
1.716
1.74
1.725
1.706
1.72
1.745
1.745
1.735
1.735
1.75
1.76
1.74
1.745
1.764
1.764
1.755
1.75
1.76
1.769
1.74
1.725
1.74
1.75
1.75
1.755
1.769
1.789
1.779
1.76
1.774
1.794
1.784
1.769
1.764
1.774
1.764
1.73
1.725
1.745
1.745
1.73
1.72
1.735
1.75
1.73
1.72
1.745
1.755
1.75
1.73
1.725
1.73
1.711
1.676
1.676
1.686
1.681
1.667
1.667
1.686
1.696
1.672
1.672
1.681
1.676
1.667
1.662
1.676
1.686
1.662
1.652
1.672
1.681
1.672
1.657
1.662
1.676
1.662
1.642
1.657
1.676
1.672
1.652
1.642
1.657
1.652
1.628
1.637
1.662
1.662
1.652
1.642
1.662
1.672
1.647
1.637
1.662
1.672
1.662
1.652
1.662
1.681
1.672
1.657
1.672
1.691
1.686
1.672
1.672
1.681
1.672
1.642
1.642
1.657
1.657
1.642
1.642
1.667
1.686
1.676
1.672
1.701
1.711
1.701
1.686
1.686
1.696
1.676
1.642
1.652
1.667
1.657
1.647
1.652
1.672
1.672
1.647
1.657
1.681
1.686
1.676
1.672
1.686
1.691
1.662
1.647
1.662
1.672
1.667
1.657
1.667
1.681
1.667
1.647
1.662
1.676
1.662
1.652
1.652
1.672
1.676
1.652
1.662
1.681
1.686
1.672
1.662
1.672
1.681
1.652
1.647
1.672
1.686
1.676
1.662
1.662
1.676
1.662
1.642
1.662
1.676
1.672
1.667
1.672
1.686
1.686
1.662
1.667
1.691
1.686
1.667
1.652
1.667
1.681
1.657
1.657
1.686
1.706
1.701
1.696
1.711
1.725
1.706
1.681
1.691
1.706
1.701
1.686
1.686
1.701
1.691
1.657
1.652
1.667
1.662
1.647
1.637
1.652
1.667
1.642
1.632
1.652
1.657
1.647
1.637
1.642
1.657
1.642
1.623
1.642
1.657
1.647
1.632
1.628
1.652
1.657
1.637
1.642
1.662
1.667
1.657
1.647
1.657
1.662
1.637
1.632
1.652
1.662
1.647
1.642
1.647
1.667
1.652
1.642
1.657
1.667
1.662
1.647
1.642
1.662
1.662
1.637
1.647
1.676
1.686
1.686
1.686
1.706
1.72
1.696
1.681
1.696
1.691
1.667
1.632
1.613
1.598
1.564
1.535
1.54
1.549
1.53
1.52
1.525
1.549
1.564
1.549
1.574
1.618
1.637
1.642
1.652
1.676
1.691
1.667
1.657
1.676
1.686
1.676
1.667
1.681
1.701
1.681
1.662
1.676
1.696
1.686
1.676
1.676
1.696
1.696
1.672
1.681
1.706
1.706
1.701
1.701
1.725
1.735
1.706
1.696
1.711
1.716
1.701
1.691
1.701
1.72
1.711
1.696
1.716
1.735
1.725
1.716
1.711
1.725
1.725
1.701
1.716
1.745
1.745
1.73
1.72
1.735
1.74
1.711
1.706
1.73
1.735
1.73
1.725
1.74
1.76
1.745
1.72
1.735
1.755
1.75
1.745
1.75
1.774
1.769
1.75
1.76
1.779
1.774
1.764
1.755
1.764
1.774
1.745
1.74
1.764
1.779
1.779
1.774
1.774
1.789
1.769
1.745
1.76
1.774
1.769
1.76
1.764
1.789
1.789
1.769
1.769
1.784
1.779
1.764
1.75
1.76
1.769
1.74
1.73
1.75
1.755
1.745
1.735
1.74
1.755
1.735
1.711
1.725
1.74
1.725
1.706
1.701
1.711
1.701
1.672
1.676
1.696
1.691
1.676
1.667
1.681
1.691
1.667
1.667
1.691
1.696
1.681
1.667
1.672
1.672
1.647
1.628
1.642
1.652
1.647
1.637
1.637
1.652
1.652
1.632
1.647
1.672
1.672
1.662
1.667
1.686
1.696
1.667
1.657
1.672
1.676
1.657
1.642
1.652
1.662
1.647
1.632
1.657
1.676
1.672
1.662
1.662
1.676
1.672
1.637
1.647
1.667
1.667
1.662
1.667
1.686
1.696
1.672
1.662
1.676
1.672
1.652
1.628
1.628
1.642
1.632
1.628
1.657
1.691
1.686
1.681
1.691
1.711
1.701
1.667
1.667
1.681
1.676
1.662
1.657
1.667
1.676
1.647
1.642
1.667
1.681
1.676
1.672
1.686
1.711
1.696
1.676
1.691
1.701
1.686
1.667
1.662
1.672
1.662
1.632
1.637
1.657
1.662
1.657
1.657
1.676
1.691
1.667
1.667
1.696
1.701
1.691
1.676
1.681
1.696
1.676
1.657
1.667
1.672
1.657
1.652
1.657
1.686
1.681
1.662
1.672
1.696
1.701
1.691
1.691
1.711
1.716
1.681
1.676
1.696
1.701
1.691
1.681
1.691
1.711
1.696
1.681
1.706
1.716
1.706
1.686
1.681
1.696
1.686
1.657
1.667
1.686
1.681
1.662
1.657
1.672
1.672
1.637
1.637
1.662
1.672
1.667
1.667
1.681
1.691
1.672
1.652
1.662
1.672
1.657
1.647
1.647
1.667
1.662
1.637
1.647
1.667
1.662
1.647
1.642
1.662
1.672
1.652
1.657
1.681
1.686
1.672
1.657
1.662
1.676
1.652
1.632
1.652
1.667
1.667
1.657
1.657
1.676
1.667
1.642
1.652
1.676
1.672
1.667
1.667
1.686
1.706
1.686
1.696
1.72
1.73
1.73
1.716
1.711
1.706
1.662
1.628
1.618
1.613
1.579
1.549
1.535
1.54
1.53
1.505
1.52
1.554
1.574
1.584
1.603
1.637
1.667
1.657
1.662
1.686
1.696
1.686
1.681
1.696
1.72
1.706
1.701
1.72
1.73
1.72
1.701
1.691
1.706
1.691
1.667
1.686
1.72
1.725
1.72
1.716
1.73
1.74
1.711
1.701
1.72
1.725
1.72
1.711
1.72
1.73
1.716
1.701
1.72
1.73
1.72
1.711
1.72
1.745
1.74
1.716
1.725
1.735
1.725
1.716
1.716
1.735
1.745
1.72
1.716
1.74
1.745
1.73
1.716
1.725
1.74
1.72
1.711
1.735
1.755
1.76
1.755
1.764
1.779
1.764
1.735
1.74
1.76
1.755
1.75
1.75
1.769
1.774
1.75
1.76
1.789
1.794
1.784
1.774
1.784
1.799
1.779
1.769
1.784
1.794
1.789
1.774
1.779
1.794
1.784
1.76
1.769
1.784
1.779
1.764
1.76
1.774
1.779
1.75
1.745
1.76
1.769
1.76
1.755
1.76
1.774
1.75
1.735
1.75
1.76
1.745
1.725
1.725
1.745
1.735
1.706
1.711
1.725
1.711
1.696
1.681
1.686
1.681
1.647
1.647
1.667
1.676
1.667
1.657
1.672
1.681
1.652
1.642
1.662
1.676
1.667
1.657
1.662
1.686
1.676
1.652
1.662
1.681
1.681
1.667
1.662
1.681
1.691
1.672
1.672
1.691
1.686
1.672
1.657
1.667
1.681
1.657
1.642
1.662
1.672
1.667
1.657
1.667
1.681
1.672
1.652
1.672
1.691
1.691
1.686
1.691
1.706
1.706
1.672
1.672
1.691
1.686
1.662
1.647
1.652
1.667
1.647
1.642
1.667
1.686
1.681
1.676
1.686
1.706
1.696
1.672
1.681
1.701
1.701
1.691
1.686
1.701
1.696
1.667
1.667
1.691
1.696
1.686
1.676
1.691
1.706
1.681
1.672
1.691
1.701
1.686
1.672
1.672
1.691
1.681
1.657
1.662
1.672
1.667
1.652
1.647
1.662
1.667
1.647
1.657
1.681
1.686
1.686
1.681
1.691
1.701
1.672
1.657
1.672
1.686
1.676
1.667
1.672
1.691
1.681
1.652
1.667
1.681
1.676
1.662
1.657
1.676
1.681
1.647
1.652
1.676
1.681
1.672
1.667
1.676
1.691
1.667
1.652
1.672
1.681
1.676
1.672
1.681
1.701
1.691
1.672
1.691
1.711
1.701
1.681
1.676
1.701
1.72
1.706
1.706
1.73
1.73
1.716
1.701
1.701
1.701
1.662
1.642
1.652
1.667
1.662
1.662
1.667
1.681
1.667
1.647
1.657
1.672
1.662
1.652
1.647
1.667
1.672
1.647
1.647
1.672
1.676
1.662
1.647
1.657
1.662
1.642
1.632
1.657
1.672
1.662
1.647
1.657
1.686
1.676
1.652
1.667
1.681
1.676
1.662
1.657
1.676
1.672
1.642
1.642
1.662
1.667
1.657
1.652
1.662
1.672
1.652
1.647
1.676
1.691
1.681
1.681
1.696
1.72
1.711
1.691
1.706
1.72
1.701
1.672
1.652
1.647
1.618
1.569
1.549
1.549
1.535
1.51
1.5
1.51
1.53
1.52
1.535
1.584
1.628
1.647
1.662
1.681
1.706
1.701
1.681
1.691
1.701
1.691
1.676
1.676
1.696
1.701
1.676
1.686
1.706
1.706
1.696
1.686
1.696
1.711
1.696
1.686
1.711
1.72
1.706
1.701
1.706
1.72
1.706
1.681
1.691
1.711
1.706
1.701
1.701
1.72
1.72
1.696
1.696
1.711
1.711
1.706
1.701
1.716
1.73
1.711
1.711
1.735
1.75
1.745
1.735
1.745
1.764
1.75
1.725
1.74
1.755
1.745
1.735
1.73
1.75
1.755
1.735
1.745
1.764
1.764
1.755
1.745
1.755
1.76
1.74
1.735
1.764
1.779
1.774
1.774
1.784
1.794
1.779
1.75
1.764
1.779
1.779
1.774
1.779
1.808
1.813
1.784
1.789
1.808
1.808
1.794
1.779
1.789
1.794
1.769
1.76
1.779
1.779
1.764
1.75
1.755
1.774
1.764
1.745
1.764
1.784
1.779
1.76
1.75
1.755
1.74
1.706
1.701
1.706
1.706
1.696
1.691
1.701
1.706
1.681
1.672
1.696
1.706
1.696
1.681
1.681
1.691
1.672
1.642
1.652
1.667
1.657
1.647
1.647
1.662
1.662
1.632
1.632
1.652
1.647
1.642
1.637
1.657
1.667
1.642
1.642
1.667
1.676
1.672
1.657
1.657
1.672
1.657
1.642
1.662
1.681
1.672
1.662
1.662
1.686
1.681
1.652
1.652
1.667
1.667
1.652
1.647
1.662
1.667
1.637
1.632
1.657
1.672
1.667
1.662
1.672
1.691
1.672
1.657
1.672
1.686
1.681
1.667
1.667
1.686
1.681
1.652
1.652
1.672
1.672
1.662
1.657
1.676
1.686
1.667
1.657
1.681
1.686
1.667
1.652
1.652
1.672
1.662
1.647
1.672
1.696
1.686
1.676
1.676
1.691
1.681
1.642
1.647
1.662
1.662
1.652
1.647
1.667
1.681
1.662
1.652
1.676
1.686
1.676
1.662
1.667
1.681
1.662
1.647
1.662
1.676
1.672
1.662
1.667
1.691
1.696
1.672
1.681
