Num1
1.725
1.73
1.711
1.711
1.72
1.711
1.696
1.681
1.686
1.691
1.672
1.662
1.676
1.681
1.672
1.657
1.657
1.667
1.647
1.623
1.632
1.647
1.642
1.637
1.642
1.662
1.662
1.642
1.642
1.647
1.642
1.628
1.618
1.628
1.637
1.618
1.608
1.628
1.637
1.632
1.623
1.628
1.637
1.623
1.603
1.608
1.618
1.603
1.579
1.559
1.559
1.549
1.525
1.54
1.584
1.637
1.696
1.784
1.896
2.014
2.102
2.195
2.287
2.351
2.37
2.361
2.336
2.287
2.199
2.087
1.994
1.906
1.804
1.706
1.632
1.588
1.549
1.496
1.481
1.491
1.496
1.5
1.505
1.535
1.564
1.564
1.579
1.623
1.647
1.657
1.657
1.662
1.676
1.662
1.637
1.647
1.657
1.657
1.647
1.652
1.667
1.662
1.642
1.647
1.667
1.672
1.662
1.662
1.681
1.696
1.676
1.672
1.686
1.691
1.676
1.667
1.676
1.691
1.681
1.667
1.686
1.711
1.716
1.716
1.72
1.74
1.745
1.73
1.74
1.76
1.769
1.764
1.76
1.769
1.769
1.745
1.735
1.745
1.745
1.74
1.73
1.74
1.764
1.764
1.755
1.779
1.804
1.808
1.813
1.818
1.838
1.848
1.828
1.843
1.867
1.887
1.891
1.901
1.931
1.95
1.94
1.94
1.96
1.975
1.97
1.96
1.97
1.984
1.975
1.955
1.97
1.984
1.979
1.965
1.955
1.965
1.955
1.926
1.926
1.935
1.926
1.901
1.887
1.877
1.867
1.818
1.789
1.779
1.769
1.75
1.725
1.72
1.725
1.701
1.676
1.676
1.681
1.672
1.652
1.637
1.642
1.637
1.613
1.613
1.628
1.618
1.608
1.593
1.603
1.613
1.593
1.584
1.598
1.608
1.598
1.588
1.593
1.608
1.588
1.574
1.588
1.603
1.603
1.593
1.593
1.613
1.608
1.584
1.584
1.603
1.603
1.598
1.593
1.613
1.628
1.608
1.608
1.623
1.623
1.613
1.598
1.598
1.608
1.593
1.574
1.588
1.613
1.613
1.608
1.613
1.628
1.628
1.608
1.613
1.628
1.628
1.613
1.603
1.613
1.613
1.588
1.584
1.598
1.608
1.608
1.598
1.608
1.623
1.608
1.588
1.603
1.613
1.608
1.603
1.603
1.623
1.623
1.598
1.603
1.623
1.618
1.608
1.603
1.613
1.618
1.598
1.593
1.613
1.618
1.618
1.608
1.623
1.632
1.618
1.598
1.613
1.623
1.613
1.598
1.598
1.613
1.613
1.593
1.598
1.618
1.623
1.618
1.613
1.628
1.637
1.623
1.623
1.642
1.652
1.647
1.637
1.642
1.647
1.632
1.608
1.623
1.637
1.637
1.632
1.637
1.662
1.667
1.647
1.657
1.676
1.681
1.672
1.672
1.676
1.676
1.652
1.647
1.662
1.672
1.662
1.657
1.662
1.676
1.667
1.647
1.657
1.667
1.657
1.637
1.632
1.642
1.632
1.603
1.603
1.618
1.618
1.608
1.608
1.623
1.632
1.613
1.613
1.628
1.637
1.632
1.623
1.632
1.647
1.632
1.618
1.632
1.642
1.642
1.632
1.632
1.637
1.628
1.593
1.584
1.593
1.588
1.569
1.559
1.564
1.574
1.569
1.598
1.672
1.75
1.828
1.916
2.023
2.131
2.199
2.243
2.283
2.292
2.258
2.195
2.116
2.038
1.935
1.813
1.73
1.667
1.603
1.544
1.505
1.5
1.5
1.476
1.476
1.5
1.525
1.535
1.549
1.574
1.608
1.608
1.608
1.632
1.657
1.657
1.652
1.657
1.672
1.667
1.647
1.657
1.672
1.676
1.662
1.652
1.662
1.672
1.647
1.642
1.662
1.672
1.672
1.672
1.686
1.706
1.696
1.681
1.696
1.716
1.706
1.701
1.701
1.716
1.711
1.686
1.691
1.711
1.711
1.706
1.706
1.72
1.735
1.716
1.72
1.74
1.75
1.75
1.74
1.75
1.769
1.755
1.745
1.764
1.784
1.784
1.774
1.779
1.799
1.799
1.779
1.794
1.818
1.823
1.828
1.833
1.857
1.877
1.862
1.867
1.891
1.906
1.911
1.911
1.926
1.945
1.935
1.921
1.94
1.955
1.96
1.955
1.96
1.979
1.975
1.955
1.955
1.965
1.955
1.94
1.931
1.931
1.931
1.896
1.882
1.891
1.887
1.867
1.843
1.828
1.823
1.789
1.755
1.745
1.735
1.716
1.691
1.681
1.686
1.672
1.642
1.637
1.652
1.647
1.632
1.623
1.628
1.628
1.598
1.588
1.603
1.603
1.593
1.584
1.588
1.598
1.584
1.569
1.584
1.593
1.588
1.584
1.579
1.593
1.593
1.569
1.574
1.588
1.593
1.584
1.584
1.593
1.603
1.584
1.579
1.598
1.603
1.598
1.588
1.593
1.608
1.588
1.574
1.588
1.603
1.603
1.598
1.598
1.618
1.613
1.588
1.598
1.618
1.618
1.613
1.608
1.618
1.623
1.598
1.593
1.608
1.613
1.608
1.598
1.608
1.628
1.613
1.603
1.618
1.628
1.623
1.613
1.618
1.632
1.632
1.608
1.618
1.632
1.632
1.623
1.613
1.623
1.623
1.593
1.588
1.608
1.618
1.613
1.613
1.623
1.637
1.623
1.608
1.618
1.632
1.623
1.613
1.618
1.632
1.632
1.613
1.623
1.642
1.642
1.637
1.632
1.647
1.652
1.623
1.623
1.637
1.647
1.642
1.637
1.647
1.662
1.652
1.647
1.662
1.686
1.686
1.681
1.686
1.701
1.691
1.662
1.662
1.676
1.672
1.662
1.657
1.672
1.672
1.642
1.637
1.647
1.647
1.632
1.623
1.632
1.642
1.628
1.613
1.628
1.637
1.632
1.618
1.618
1.632
1.628
1.603
1.608
1.623
1.623
1.608
1.598
1.613
1.618
1.593
1.593
1.613
1.623
1.618
1.613
1.623
1.632
1.613
1.593
1.598
1.603
1.588
1.569
1.554
1.559
1.54
1.51
1.52
1.549
1.588
1.632
1.706
1.808
1.916
1.999
2.102
2.204
2.278
2.312
2.317
2.297
2.263
2.18
2.077
1.994
1.906
1.804
1.706
1.628
1.584
1.535
1.486
1.476
1.486
1.491
1.491
1.5
1.53
1.554
1.544
1.554
1.588
1.613
1.623
1.628
1.642
1.657
1.637
1.623
1.637
1.652
1.647
1.637
1.642
1.662
1.662
1.642
1.657
1.676
1.676
1.667
1.662
1.676
1.681
1.657
1.657
1.676
1.686
1.681
1.672
1.681
1.696
1.676
1.662
1.676
1.696
1.701
1.701
1.711
1.73
1.725
1.706
1.711
1.725
1.72
1.711
1.711
1.725
1.74
1.72
1.725
1.75
1.76
1.76
1.755
1.764
1.779
1.764
1.755
1.774
1.794
1.794
1.794
1.804
1.828
1.838
1.818
1.833
1.857
1.867
1.867
1.872
1.896
1.906
1.891
1.896
1.921
1.931
1.931
1.931
1.94
1.955
1.94
1.926
1.935
1.95
1.945
1.931
1.931
1.94
1.931
1.901
1.896
1.901
1.887
1.862
1.838
1.833
1.823
1.789
1.769
1.774
1.764
1.745
1.72
1.711
1.706
1.676
1.652
1.652
1.652
1.642
1.623
1.618
1.623
1.608
1.584
1.588
1.603
1.603
1.593
1.588
1.603
1.608
1.584
1.574
1.588
1.588
1.584
1.574
1.584
1.598
1.584
1.569
1.584
1.593
1.588
1.579
1.579
1.598
1.593
1.574
1.579
1.598
1.603
1.593
1.588
1.608
1.613
1.588
1.584
1.603
1.603
1.593
1.588
1.598
1.613
1.593
1.584
1.598
1.608
1.603
1.588
1.588
1.603
1.598
1.574
1.584
1.608
1.618
1.618
1.618
1.632
1.632
1.608
1.603
1.613
1.618
1.608
1.598
1.608
1.623
1.603
1.588
1.603
1.618
1.613
1.603
1.608
1.623
1.618
1.593
1.603
1.623
1.628
1.623
1.623
1.637
1.647
1.623
1.618
1.637
1.637
1.628
1.618
1.618
1.628
1.608
1.593
1.613
1.632
1.628
1.623
1.623
1.642
1.642
1.623
1.628
1.642
1.637
1.628
1.623
1.632
1.632
1.608
1.608
1.628
1.637
1.637
1.632
1.647
1.667
1.657
1.647
1.657
1.667
1.667
1.657
1.662
1.681
1.676
1.662
1.681
1.706
1.711
1.706
1.706
1.711
1.711
1.676
1.662
1.667
1.662
1.642
1.632
1.637
1.647
1.632
1.618
1.632
1.642
1.642
1.632
1.632
1.642
1.632
1.608
1.618
1.632
1.628
1.623
1.623
1.642
1.647
1.623
1.618
1.637
1.637
1.628
1.618
1.628
1.637
1.623
1.613
1.628
1.642
1.632
1.618
1.613
1.613
1.593
1.559
1.549
1.554
1.544
1.54
1.554
1.603
1.667
1.72
1.813
1.931
2.043
2.141
2.219
2.297
2.351
2.346
2.317
2.287
2.229
2.141
2.028
1.926
1.833
1.735
1.632
1.574
1.54
1.51
1.486
1.481
1.5
1.525
1.515
1.535
1.569
1.588
1.593
1.603
1.623
1.642
1.628
1.613
1.632
1.647
1.647
1.642
1.642
1.662
1.662
1.642
1.652
1.672
1.676
1.667
1.667
1.681
1.686
1.662
1.662
1.681
1.686
1.681
1.676
1.686
1.706
1.691
1.681
1.696
1.711
1.711
1.701
1.706
1.716
1.711
1.691
1.701
1.72
1.72
1.716
1.716
1.735
1.74
1.72
1.725
1.745
1.755
1.75
1.745
1.76
1.779
1.764
1.755
1.774
1.789
1.789
1.789
1.799
1.818
1.823
1.808
1.828
1.848
1.852
1.848
1.852
1.872
1.887
1.872
1.882
1.911
1.926
1.931
1.926
1.94
1.955
1.945
1.931
1.95
1.965
1.96
1.955
1.955
1.97
1.96
1.935
1.94
1.95
1.945
1.931
1.916
1.921
1.906
1.867
1.848
1.843
1.828
1.804
1.779
1.769
1.764
1.735
1.706
1.711
1.706
1.691
1.672
1.662
1.662
1.647
1.618
1.618
1.628
1.623
1.608
1.608
1.618
1.623
1.598
1.598
1.613
1.613
1.608
1.598
1.608
1.613
1.593
1.579
1.593
1.608
1.603
1.593
1.598
1.618
1.613
1.588
1.598
1.613
1.608
1.603
1.598
1.613
1.618
1.598
1.603
1.628
1.637
1.628
1.623
1.628
1.637
1.613
1.593
1.608
1.613
1.608
1.598
1.603
1.623
1.618
1.598
1.613
1.637
1.642
1.637
1.632
1.642
1.642
1.613
1.608
1.618
1.618
1.613
1.613
1.628
1.647
1.632
1.628
1.642
1.647
1.637
1.618
1.618
1.628
1.623
1.603
1.613
1.632
1.637
1.632
1.632
1.647
1.647
1.618
1.618
1.632
1.632
1.623
1.613
1.628
1.642
1.628
1.618
1.637
1.652
1.652
1.642
1.642
1.657
1.642
1.618
1.623
1.637
1.637
1.632
1.637
1.657
1.667
1.642
1.642
1.657
1.657
1.647
1.632
1.642
1.652
1.637
1.628
1.647
1.667
1.662
1.657
1.662
1.676
1.672
1.657
1.672
1.691
1.696
1.691
1.691
1.711
1.716
1.691
1.691
1.711
1.711
1.701
1.696
1.701
1.706
1.676
1.652
1.657
1.657
1.647
1.637
1.637
1.657
1.652
1.632
1.642
1.662
1.657
1.647
1.647
1.657
1.662
1.637
1.632
1.647
1.642
1.632
1.618
1.623
1.632
1.613
1.608
1.632
1.647
1.647
1.642
1.647
1.657
1.647
1.618
1.618
1.628
1.618
1.598
1.584
1.593
1.588
1.559
1.564
1.593
1.628
1.667
1.73
1.823
1.935
2.019
2.107
2.209
2.292
2.331
2.331
2.312
2.278
2.199
2.082
1.984
1.896
1.799
1.701
1.623
1.584
1.544
1.491
1.481
1.496
1.505
1.505
1.515
1.54
1.569
1.569
1.579
1.613
1.642
1.647
1.647
1.657
1.672
1.667
1.642
1.657
1.676
1.676
1.672
1.672
1.691
1.696
1.667
1.667
1.686
1.691
1.686
1.681
1.701
1.716
1.701
1.691
1.711
1.72
1.711
1.696
1.701
1.716
1.706
1.686
1.701
1.72
1.725
1.72
1.72
1.735
1.74
1.716
1.72
1.74
1.745
1.74
1.735
1.75
1.764
1.745
1.735
1.755
1.764
1.764
1.76
1.769
1.794
1.799
1.784
1.804
1.828
1.833
1.833
1.838
1.857
1.862
1.848
1.852
1.877
1.891
1.891
1.891
1.911
1.926
1.916
1.911
1.931
1.945
1.945
1.94
1.945
1.965
1.96
1.945
1.96
1.975
1.975
1.965
1.955
1.955
1.95
1.916
1.906
1.911
1.906
1.891
1.877
1.877
1.872
1.838
1.813
1.808
1.799
1.774
1.75
1.735
1.735
1.711
1.681
1.681
1.686
1.676
1.657
1.647
1.652
1.652
1.618
1.618
1.632
1.632
1.623
1.618
1.628
1.637
1.618
1.608
1.628
1.632
1.623
1.608
1.608
1.613
1.598
1.579
1.584
1.598
1.593
1.588
1.588
1.608
1.618
1.598
1.603
1.623
1.628
1.623
1.618
1.632
1.647
1.628
1.623
1.637
1.647
1.642
1.632
1.637
1.647
1.632
1.608
1.613
1.632
1.632
1.623
1.628
1.642
1.652
1.632
1.637
1.652
1.657
1.652
1.642
1.652
1.657
1.632
1.618
1.632
1.642
1.642
1.637
1.637
1.652
1.642
1.623
1.628
1.642
1.642
1.632
1.632
1.652
1.657
1.632
1.632
1.647
1.647
1.637
1.628
1.642
1.657
1.642
1.637
1.657
1.667
1.662
1.647
1.647
1.662
1.647
1.628
1.637
1.652
1.652
1.637
1.632
1.647
1.647
1.623
1.623
1.642
1.642
1.637
1.632
1.647
1.662
1.647
1.637
1.652
1.662
1.652
1.647
1.652
1.667
1.657
1.632
1.647
1.662
1.667
1.657
1.662
1.681
1.686
1.667
1.672
1.691
1.701
1.696
1.691
1.701
1.716
1.696
1.686
1.701
1.706
1.701
1.686
1.686
1.691
1.676
1.647
1.657
1.672
1.667
1.657
1.657
1.667
1.667
1.637
1.632
1.642
1.642
1.632
1.628
1.642
1.652
1.632
1.628
1.642
1.652
1.642
1.628
1.628
1.642
1.632
1.613
1.628
1.647
1.647
1.642
1.642
1.657
1.652
1.623
1.608
1.608
1.588
1.564
1.535
1.535
1.54
1.525
1.535
1.593
1.667
1.74
1.828
1.935
2.058
2.151
2.214
2.287
2.336
2.341
2.307
2.258
2.199
2.111
1.984
1.882
1.799
1.711
1.628
1.559
1.525
1.505
1.471
1.461
1.486
1.51
1.525
1.535
1.559
1.593
1.603
1.603
1.628
1.657
1.662
1.652
1.652
1.672
1.676
1.652
1.652
1.672
1.676
1.672
1.667
1.676
1.686
1.667
1.657
1.676
1.686
1.681
1.672
1.681
1.696
1.681
1.662
1.676
1.696
1.696
1.686
1.686
1.706
1.706
1.681
1.686
1.701
1.706
1.701
1.696
1.711
1.725
1.711
1.706
1.725
1.74
1.74
1.735
1.74
1.76
1.755
1.74
1.755
1.769
1.769
1.764
1.769
1.789
1.794
1.774
1.779
1.808
1.823
1.823
1.828
1.843
1.857
1.843
1.838
1.857
1.877
1.882
1.887
1.901
1.926
1.921
1.906
1.921
1.935
1.94
1.931
1.931
1.945
1.95
1.926
1.931
1.945
1.945
1.931
1.916
1.916
1.921
1.896
1.882
1.891
1.891
1.872
1.848
1.838
1.828
1.799
1.76
1.755
1.76
1.75
1.73
1.711
1.711
1.701
1.657
1.642
1.642
1.628
1.613
1.603
1.613
1.623
1.603
1.598
1.618
1.628
1.618
1.603
1.608
1.618
1.603
1.579
1.588
1.603
1.598
1.588
1.588
1.603
1.603
1.584
1.584
1.603
1.608
1.598
1.593
1.608
1.623
1.603
1.593
1.613
1.623
1.618
1.608
1.613
1.628
1.613
1.588
1.598
1.613
1.613
1.603
1.603
1.618
1.623
1.598
1.603
1.618
1.618
1.608
1.603
1.618
1.632
1.613
1.608
1.623
1.632
1.628
1.618
1.618
1.632
1.623
1.608
1.623
1.642
1.642
1.632
1.628
1.642
1.642
1.618
1.618
1.637
1.642
1.632
1.623
1.632
1.642
1.618
1.603
1.618
1.623
1.618
1.608
1.618
1.637
1.632
1.618
1.628
1.642
1.637
1.628
1.628
1.642
1.642
1.618
1.623
1.637
1.642
1.637
1.637
1.647
1.652
1.637
1.628
1.647
1.657
1.652
1.642
1.647
1.657
1.642
1.623
1.632
1.647
1.642
1.642
1.647
1.667
1.676
1.657
1.662
1.686
1.691
1.686
1.681
1.701
1.716
1.696
1.686
1.701
1.711
1.701
1.686
1.681
1.686
1.667
1.642
1.652
1.662
1.657
1.642
1.642
1.657
1.652
1.623
1.623
1.637
1.642
1.637
1.632
1.647
1.657
1.632
1.623
1.642
1.642
1.632
1.618
1.623
1.642
1.628
1.613
1.623
1.637
1.637
1.623
1.628
1.642
1.642
1.618
1.618
1.632
1.623
1.598
1.579
1.574
1.564
1.53
1.515
1.535
1.564
1.593
1.642
1.72
1.823
1.911
1.994
2.107
2.209
2.273
2.302
2.317
2.312
2.268
2.175
2.087
1.999
1.896
1.784
1.686
1.618
1.564
1.505
1.471
1.476
1.481
1.481
1.486
1.51
1.544
1.549
1.549
1.584
1.618
1.632
1.642
1.652
1.667
1.667
1.637
1.637
1.652
1.652
1.642
1.637
1.647
1.657
1.642
1.637
1.657
1.672
1.672
1.662
1.672
1.686
1.676
1.662
1.676
1.686
1.681
1.672
1.672
1.686
1.686
1.662
1.667
1.681
1.691
1.691
1.691
1.706
1.72
1.701
1.696
1.711
1.72
1.716
1.706
1.711
1.73
1.725
1.711
1.73
1.755
1.76
1.76
1.764
1.784
1.784
1.764
1.774
1.794
1.799
1.799
1.799
1.818
1.833
1.818
1.818
1.843
1.852
1.857
1.852
1.867
1.891
1.887
1.872
1.896
1.916
1.926
1.921
1.926
1.945
1.95
1.926
1.926
1.94
1.935
1.921
1.906
1.916
1.916
1.891
1.877
1.887
1.887
1.872
1.852
1.848
1.848
1.823
1.789
1.784
1.784
1.764
1.735
1.72
1.716
1.701
1.657
1.647
1.657
1.647
1.628
1.618
1.623
1.628
1.603
1.593
1.608
1.618
1.608
1.598
1.598
1.613
1.598
1.579
1.584
1.593
1.588
1.579
1.579
1.593
1.593
1.569
1.569
1.584
1.588
1.579
1.574
1.588
1.598
1.579
1.569
1.588
1.598
1.598
1.588
1.593
1.608
1.598
1.579
1.593
1.608
1.608
1.598
1.598
1.613
1.608
1.584
1.588
1.608
1.613
1.608
1.603
1.613
1.623
1.598
1.593
1.608
1.613
1.608
1.598
1.608
1.623
1.608
1.593
1.603
1.618
1.613
1.598
1.598
1.613
1.608
1.584
1.593
1.613
1.613
1.603
1.598
1.608
1.618
1.603
1.598
1.618
1.628
1.618
1.608
1.613
1.623
1.608
1.588
1.603
1.618
1.613
1.608
1.608
1.623
1.623
1.593
1.598
1.618
1.623
1.618
1.618
1.628
1.637
1.613
1.608
1.623
1.628
1.618
1.608
1.618
1.632
1.623
1.608
1.628
1.647
1.652
1.652
1.657
1.676
1.676
1.657
1.662
1.686
1.686
1.681
1.681
1.696
1.701
1.676
1.662
1.672
1.672
1.662
1.642
1.642
1.647
1.632
1.608
1.618
1.628
1.623
1.608
1.603
1.618
1.618
1.593
1.598
1.613
1.613
1.603
1.593
1.608
1.618
1.598
1.593
1.608
1.618
1.613
1.603
1.613
1.628
1.613
1.593
1.608
1.623
1.618
1.608
1.603
1.618
1.608
1.579
1.574
1.579
1.569
1.544
1.53
1.54
1.554
1.554
1.598
1.681
1.769
1.862
1.955
2.063
2.165
2.229
2.263
2.292
2.297
2.258
2.185
2.102
2.019
1.911
1.784
1.691
1.628
1.564
1.51
1.476
1.476
1.481
1.461
1.471
1.505
1.535
1.554
1.564
1.588
1.618
1.618
1.613
1.632
1.652
1.647
1.637
1.642
1.657
1.657
1.637
1.647
1.667
1.667
1.657
1.647
1.662
1.672
1.652
1.657
1.676
1.691
1.691
1.681
1.691
1.701
1.681
1.657
1.662
1.676
1.676
1.667
1.672
1.696
1.701
1.686
1.696
1.716
1.72
1.711
1.701
1.711
1.72
1.701
1.696
1.72
1.73
1.73
1.725
1.74
1.76
1.75
1.735
1.745
1.76
1.76
1.755
1.76
1.784
1.789
1.774
1.789
1.813
1.823
1.823
1.823
1.843
1.857
1.838
1.838
1.857
1.872
1.872
1.872
1.882
1.901
1.891
1.872
1.887
1.901
1.901
1.901
1.906
1.931
1.931
1.911
1.916
1.931
1.926
1.911
1.891
1.887
1.882
1.848
1.833
1.838
1.833
1.813
1.789
1.779
1.774
1.74
1.711
1.711
1.711
1.696
1.676
1.667
1.672
1.657
1.623
1.623
1.632
1.628
1.613
1.603
1.613
1.618
1.593
1.584
1.593
1.598
1.584
1.574
1.574
1.593
1.579
1.569
1.584
1.598
1.598
1.593
1.593
1.608
1.598
1.569
1.574
1.584
1.588
1.579
1.579
1.598
1.608
1.588
1.588
1.603
1.608
1.603
1.588
1.593
1.613
1.603
1.588
1.603
1.618
1.613
1.603
1.603
1.623
1.618
1.588
1.593
1.613
1.613
1.603
1.598
1.613
1.618
1.593
1.588
1.603
1.608
1.598
1.588
1.593
1.608
1.598
1.584
1.598
1.613
1.613
1.603
1.603
1.623
1.618
1.593
1.593
1.613
1.618
1.613
1.608
1.618
1.623
1.603
1.598
1.618
1.628
1.623
1.613
1.623
1.632
1.618
1.598
1.613
1.623
1.618
1.608
1.608
1.628
1.628
1.603
1.613
1.632
1.632
1.623
1.623
1.637
1.647
1.628
1.632
1.657
1.667
1.667
1.667
1.676
1.691
1.672
1.652
1.662
1.672
1.667
1.652
1.647
1.662
1.657
1.632
1.632
1.647
1.642
1.623
1.613
1.618
1.618
1.588
1.579
1.593
1.598
1.593
1.588
1.603
1.618
1.603
1.588
1.603
1.623
1.618
1.608
1.608
1.623
1.618
1.593
1.598
1.613
1.613
1.603
1.598
1.613
1.623
1.598
1.588
1.598
1.598
1.579
1.559
1.549
1.549
1.53
1.515
1.549
1.593
1.647
1.711
1.799
1.911
2.009
2.082
2.17
2.243
2.278
2.273
2.243
2.199
2.136
2.023
1.916
1.828
1.74
1.647
1.564
1.515
1.491
1.457
1.437
1.447
1.476
1.486
1.496
1.52
1.559
1.574
1.574
1.593
1.628
1.637
1.637
1.637
1.652
1.662
1.637
1.632
1.652
1.657
1.657
1.647
1.657
1.672
1.662
1.647
1.662
1.676
1.667
1.657
1.657
1.672
1.672
1.647
1.652
1.672
1.676
1.672
1.667
1.686
1.691
1.672
1.672
1.701
1.711
1.706
1.696
1.706
1.72
1.711
1.696
1.706
1.72
1.72
1.716
1.72
1.74
1.74
1.716
1.725
1.75
1.755
1.75
1.755
1.774
1.789
1.774
1.779
1.804
1.813
1.813
1.813
1.823
1.843
1.833
1.823
1.843
1.862
1.862
1.857
1.867
1.891
1.896
1.877
1.887
1.911
1.916
1.911
1.911
1.926
1.935
1.916
1.916
1.935
1.94
1.931
1.916
1.916
1.916
1.887
1.852
1.852
1.852
1.833
1.813
1.804
1.808
1.794
1.755
1.75
1.76
1.745
1.72
1.696
1.691
1.681
1.642
1.623
1.632
1.628
1.613
1.603
1.608
1.623
1.603
1.588
1.593
1.603
1.593
1.584
1.579
1.593
1.588
1.564
1.569
1.588
1.588
1.579
1.579
1.588
1.598
1.574
1.574
1.588
1.598
1.593
1.588
1.598
1.618
1.603
1.588
1.603
1.613
1.608
1.593
1.593
1.608
1.603
1.579
1.588
1.603
1.608
1.598
1.593
1.603
1.613
1.588
1.588
1.603
1.608
1.598
1.593
1.603
1.618
1.603
1.588
1.603
1.613
1.608
1.598
1.598
1.613
1.608
1.588
1.598
1.613
1.618
1.603
1.598
1.613
1.618
1.598
1.593
1.613
1.623
1.618
1.618
1.628
1.642
1.623
1.603
1.618
1.628
1.623
1.613
1.618
1.637
1.637
1.618
1.628
1.647
1.647
1.642
1.632
1.647
1.662
1.642
1.647
1.667
1.676
1.676
1.667
1.676
1.691
1.676
1.662
1.672
1.676
1.662
1.642
1.637
1.647
1.628
1.598
1.598
1.618
1.618
1.613
1.613
1.628
1.632
1.603
1.598
1.613
1.613
1.603
1.593
1.603
1.613
1.598
1.584
1.603
1.618
1.613
1.603
1.603
1.623
1.618
1.593
1.598
1.613
1.613
1.603
1.593
1.603
1.603
1.569
1.554
1.564
1.559
1.54
1.525
1.53
1.554
1.559
1.588
1.667
1.764
1.862
1.95
2.048
2.155
2.224
2.243
2.263
2.263
2.214
2.136
2.043
1.955
1.857
1.73
1.637
1.579
1.525
1.471
1.437
1.432
1.447
1.442
1.442
1.481
1.515
1.535
1.549
1.574
1.613
1.628
1.618
1.632
1.652
1.657
1.647
1.647
1.662
1.662
1.637
1.637
1.657
1.667
1.662
1.652
1.662
1.676
1.662
1.652
1.667
1.681
1.676
1.672
1.676
1.696
1.696
1.672
1.676
1.696
1.701
1.696
1.696
1.711
1.72
1.691
1.686
1.706
1.706
1.696
1.691
1.701
1.716
1.701
1.696
1.716
1.73
1.735
1.725
1.735
1.75
1.75
1.735
1.75
1.774
1.784
1.779
1.779
1.799
1.808
1.789
1.794
1.818
1.833
1.833
1.828
1.848
1.867
1.857
1.848
1.872
1.891
1.891
1.891
1.901
1.921
1.916
1.887
1.896
1.911
1.916
1.911
1.906
1.921
1.926
1.901
1.896
1.911
1.911
1.896
1.882
1.877
1.877
1.848
1.823
1.823
1.823
1.804
1.779
1.764
1.769
1.745
1.706
1.701
1.701
1.686
1.662
1.647
1.652
1.652
1.623
1.618
1.628
1.623
1.608
1.593
1.598
1.608
1.588
1.574
1.588
1.598
1.593
1.579
1.584
1.598
1.588
1.564
1.569
1.588
1.588
1.584
1.584
1.598
1.598
1.574
1.574
1.593
1.598
1.593
1.588
1.603
1.618
1.603
1.588
1.603
1.613
1.608
1.593
1.593
1.603
1.598
1.574
1.584
1.603
1.608
1.603
1.593
1.608
1.618
1.603
1.603
1.623
1.628
1.618
1.608
1.618
1.628
1.608
1.593
1.608
1.618
1.618
1.608
1.608
1.618
1.613
1.588
1.598
1.618
1.618
1.613
1.608
1.623
1.628
1.603
1.603
1.628
1.632
1.623
1.618
1.623
1.632
1.613
1.598
1.613
1.628
1.628
1.628
1.637
1.657
1.662
1.642
1.652
1.672
1.676
1.672
1.667
1.686
1.691
1.672
1.672
1.691
1.701
1.691
1.686
1.691
1.701
1.672
1.652
1.652
1.652
1.637
1.618
1.618
1.628
1.618
1.598
1.608
1.628
1.623
1.618
1.608
1.618
1.623
1.598
1.603
1.618
1.623
1.618
1.608
1.618
1.632
1.613
1.598
1.608
1.613
1.603
1.593
1.598
1.618
1.618
1.598
1.608
1.618
1.613
1.593
1.579
1.574
1.569
1.53
1.52
1.54
1.559
1.584
1.628
1.711
1.813
1.896
1.984
2.092
2.19
2.253
2.273
2.278
2.258
2.195
2.092
2.004
1.916
1.808
1.701
1.608
1.554
1.505
1.442
1.422
1.432
1.442
1.452
1.466
1.496
1.535
1.544
1.559
1.598
1.628
1.637
1.642
1.652
1.667
1.657
1.632
1.637
1.652
1.652
1.647
1.647
1.667
1.672
1.652
1.652
1.672
1.676
1.667
1.662
1.672
1.686
1.667
1.657
1.681
1.696
1.696
1.691
1.696
1.711
1.706
1.681
1.691
1.706
1.706
1.701
1.696
1.711
1.72
1.701
1.706
1.725
1.73
1.725
1.716
1.73
1.745
1.73
1.72
1.74
1.76
1.764
1.76
1.764
1.789
1.784
1.769
1.784
1.804
1.808
1.804
1.808
1.833
1.848
1.838
1.852
1.882
1.896
1.896
1.896
1.906
1.916
1.901
1.887
1.901
1.916
1.916
1.901
1.906
1.926
1.921
1.896
1.901
1.916
1.916
1.906
1.901
1.911
1.911
1.877
1.862
1.867
1.857
1.833
1.808
1.804
1.799
1.764
1.74
1.745
1.75
1.74
1.72
1.711
1.716
1.696
1.662
1.657
1.662
1.652
1.632
1.618
1.628
1.628
1.598
1.598
1.613
1.613
1.603
1.593
1.603
1.613
1.598
1.584
1.598
1.608
1.603
1.588
1.588
1.603
1.588
1.564
1.569
1.584
1.579
1.574
1.574
1.588
1.598
1.579
1.588
1.613
1.623
1.623
1.613
1.628
1.637
1.618
1.598
1.613
1.623
1.618
1.608
1.613
1.632
1.623
1.603
1.608
1.623
1.618
1.608
1.603
1.623
1.628
1.613
1.608
1.623
1.628
1.613
1.603
1.608
1.613
1.593
1.584
1.598
1.613
1.613
1.608
1.613
1.623
1.608
1.584
1.588
1.603
1.603
1.603
1.603
1.623
1.632
1.613
1.618
1.637
1.642
1.637
1.632
1.642
1.657
1.642
1.632
1.657
1.667
1.662
1.647
1.647
1.667
1.662
1.647
1.667
1.691
1.696
1.686
1.681
1.696
1.696
1.662
1.652
1.662
1.657
1.637
1.623
1.628
1.632
1.613
1.598
1.613
1.632
1.632
1.628
1.628
1.642
1.632
1.608
1.613
1.628
1.623
1.613
1.618
1.637
1.647
1.628
1.628
1.637
1.632
1.613
1.598
1.598
1.608
1.588
1.579
1.593
1.608
1.608
1.598
1.603
1.618
1.603
1.574
1.574
1.574
1.564
1.554
1.554
1.584
1.618
1.642
1.711
1.813
1.911
1.999
2.082
2.17
2.239
2.248
2.234
2.219
2.175
2.092
1.989
1.887
1.794
1.681
1.574
1.515
1.486
1.457
1.432
1.427
1.447
1.461
1.457
1.476
1.52
1.549
1.569
1.588
1.623
1.657
1.652
1.642
1.662
1.672
1.667
1.652
1.652
1.667
1.667
1.652
1.672
1.696
1.696
1.686
1.676
1.686
1.686
1.662
1.662
1.676
1.681
1.676
1.681
1.701
1.72
1.711
1.701
1.72
1.735
1.73
1.72
1.725
1.74
1.725
1.696
1.696
1.711
1.716
1.716
1.725
1.75
1.76
1.745
1.75
1.769
1.774
1.764
1.755
1.764
1.784
1.774
1.779
1.808
1.823
1.828
1.818
1.823
1.833
1.823
1.799
1.808
1.833
1.848
1.857
1.867
1.896
1.911
1.896
1.901
1.916
1.916
1.911
1.906
1.921
1.935
1.916
1.911
1.931
1.94
1.94
1.935
1.94
1.955
1.935
1.906
1.911
1.916
1.901
1.882
1.867
1.872
1.867
1.838
1.823
1.828
1.818
1.794
1.764
1.755
1.75
1.716
1.691
1.696
1.701
1.691
1.672
1.667
1.667
1.647
1.613
1.618
1.628
1.628
1.613
1.618
1.632
1.642
1.618
1.618
1.632
1.628
1.618
1.608
1.618
1.632
1.618
1.603
1.613
1.623
1.618
1.603
1.613
1.628
1.623
1.608
1.618
1.632
1.628
1.613
1.603
1.613
1.613
1.588
1.593
1.613
1.618
1.613
1.608
1.618
1.632
1.613
1.608
1.623
1.632
1.628
1.618
1.623
1.647
1.642
1.623
1.632
1.652
1.647
1.632
1.623
1.632
1.628
1.593
1.588
1.608
1.618
1.618
1.618
1.628
1.642
1.623
1.618
1.637
1.647
1.642
1.632
1.632
1.647
1.642
1.623
1.632
1.647
1.642
1.632
1.632
1.642
1.647
1.628
1.637
1.662
1.672
1.672
1.667
1.681
1.696
1.676
1.672
1.691
1.701
1.696
1.686
1.691
1.706
1.696
1.667
1.676
1.686
1.681
1.662
1.652
1.657
1.652
1.618
1.613
1.628
1.628
1.623
1.618
1.628
1.637
1.613
1.598
1.608
1.618
1.613
1.603
1.608
1.623
1.613
1.593
1.608
1.623
1.618
1.603
1.598
1.613
1.613
1.588
1.588
1.608
1.613
1.608
1.598
1.608
1.618
1.588
1.564
1.569
1.559
1.54
1.52
1.52
1.544
1.559
1.584
1.667
1.764
1.867
1.96
2.063
2.165
2.243
2.263
2.273
2.263
2.214
2.121
2.019
1.921
1.818
1.696
1.593
1.54
1.496
1.461
1.437
1.437
1.447
1.447
1.442
1.471
1.51
1.535
1.549
1.574
1.618
1.642
1.637
1.642
1.662
1.662
1.642
1.632
1.642
1.652
1.637
1.632
1.657
1.667
1.662
1.652
1.652
1.662
1.642
1.623
1.637
1.657
1.667
1.667
1.676
1.701
1.711
1.691
1.691
1.706
1.701
1.691
1.676
1.686
1.691
1.672
1.662
1.686
1.701
1.701
1.696
1.706
1.725
1.72
1.711
1.725
1.745
1.745
1.74
1.73
1.745
1.75
1.73
1.74
1.764
1.774
1.769
1.769
1.784
1.799
1.784
1.774
1.794
1.808
1.808
1.813
1.833
1.862
1.867
1.862
1.882
1.906
1.906
1.896
1.891
1.901
1.901
1.872
1.872
1.887
1.891
1.887
1.882
1.896
1.911
1.887
1.872
1.882
1.891
1.887
1.872
1.872
1.882
1.857
1.823
1.818
1.818
1.799
1.774
1.75
1.745
1.73
1.691
1.681
1.691
1.681
1.667
1.652
1.657
1.662
1.642
1.632
1.642
1.642
1.628
1.608
1.603
1.608
1.588
1.564
1.569
1.584
1.584
1.579
1.584
1.603
1.603
1.579
1.579
1.593
1.598
1.593
1.588
1.603
1.613
1.598
1.588
1.603
1.613
1.608
1.593
1.593
1.603
1.588
1.574
1.588
1.608
1.608
1.603
1.608
1.628
1.628
1.603
1.603
1.613
1.613
1.603
1.598
1.613
1.628
1.608
1.598
1.618
1.632
1.637
1.632
1.637
1.652
1.637
1.613
1.618
1.628
1.618
1.598
1.593
1.613
1.613
1.593
1.598
1.618
1.623
1.618
1.613
1.623
1.632
1.613
1.608
1.628
1.632
1.628
1.618
1.628
1.647
1.637
1.618
1.632
1.652
1.652
1.647
1.647
1.667
1.667
1.647
1.662
1.686
1.696
1.691
1.686
1.701
1.711
1.691
1.676
1.691
1.691
1.676
1.652
1.647
1.652
1.628
1.598
1.603
1.623
1.618
1.613
1.618
1.632
1.632
1.603
1.603
1.623
1.623
1.608
1.598
1.608
1.618
1.593
1.579
1.593
1.603
1.598
1.593
1.598
1.623
1.618
1.603
1.613
1.628
1.623
1.613
1.613
1.623
1.623
1.588
1.579
1.584
1.569
1.549
1.53
1.535
1.554
1.559
1.598
1.681
1.774
1.867
1.96
2.063
2.165
2.234
2.258
2.287
2.287
2.239
2.16
2.063
1.965
1.848
1.716
1.618
1.554
1.5
1.457
1.432
1.447
1.461
1.457
1.461
1.5
1.535
1.554
1.569
1.593
1.623
1.623
1.618
1.642
1.662
1.662
1.652
1.652
1.672
1.672
1.652
1.657
1.676
1.681
1.672
1.667
1.676
1.691
1.676
1.667
1.686
1.696
1.686
1.676
1.686
1.706
1.696
1.676
1.686
1.701
1.701
1.696
1.696
1.716
1.716
1.691
1.696
1.711
1.716
1.711
1.706
1.725
1.74
1.725
1.725
1.74
1.755
1.75
1.745
1.75
1.764
1.755
1.74
1.76
1.779
1.784
1.779
1.784
1.808
1.813
1.794
1.804
1.833
1.843
1.848
1.848
1.872
1.882
1.867
1.862
1.882
1.891
1.887
1.882
1.891
1.911
1.906
1.891
1.906
1.931
1.935
1.931
1.931
1.94
1.935
1.906
1.901
1.906
1.896
1.877
1.862
1.867
1.867
1.838
1.823
1.833
1.823
1.804
1.779
1.769
1.769
1.74
1.706
1.696
1.696
1.681
1.662
1.647
1.657
1.647
1.623
1.618
1.632
1.632
1.618
1.608
1.618
1.623
1.598
1.588
1.608
1.618
1.618
1.613
1.618
1.628
1.613
1.584
1.593
1.598
1.593
1.579
1.584
1.598
1.598
1.579
1.588
1.618
1.623
1.618
1.613
1.623
1.632
1.613
1.608
1.623
1.632
1.623
1.613
1.618
1.632
1.618
1.598
1.608
1.618
1.613
1.603
1.603
1.623
1.623
1.598
1.608
1.628
1.628
1.623
1.618
1.628
1.637
1.613
1.603
1.623
1.632
1.628
1.618
1.618
1.628
1.618
1.598
1.608
1.623
1.623
1.618
1.628
1.647
1.652
1.632
1.637
1.657
1.657
1.642
1.632
1.642
1.657
1.637
1.632
1.657
1.672
1.672
1.667
1.681
1.701
1.691
1.676
1.691
1.706
1.706
1.696
1.696
1.711
1.706
1.681
1.681
1.696
1.691
1.676
1.662
1.662
1.662
1.632
1.613
1.628
1.628
1.623
1.613
1.613
1.628
1.608
1.588
1.598
1.618
1.618
1.613
1.613
1.628
1.632
1.608
1.613
1.632
1.628
1.618
1.608
1.618
1.628
1.598
1.593
1.603
1.613
1.603
1.593
1.598
1.608
1.588
1.559
1.559
1.559
1.54
1.525
1.52
1.544
1.574
1.593
1.667
1.774
1.872
1.965
2.058
2.16
2.234
2.253
2.253
2.243
2.204
2.121
2.019
1.921
1.823
1.706
1.598
1.535
1.496
1.452
1.422
1.413
1.442
1.461
1.466
1.5
1.549
1.579
1.593
1.608
1.632
1.652
1.632
1.628
1.647
1.657
1.652
1.647
1.652
1.672
1.662
1.642
1.657
1.676
1.676
1.667
1.667
1.681
1.681
1.657
1.662
1.681
1.686
1.681
1.681
1.696
1.711
1.691
1.681
1.701
1.711
1.706
1.696
1.701
1.716
1.701
1.686
1.701
1.716
1.716
1.711
1.711
1.73
1.735
1.72
1.73
1.76
1.764
1.76
1.755
1.764
1.774
1.755
1.755
1.779
1.794
1.794
1.794
1.808
1.833
1.828
1.813
1.828
1.848
1.852
1.848
1.852
1.877
1.877
1.857
1.862
1.887
1.896
1.891
1.891
1.906
1.921
1.901
1.896
1.916
1.926
1.921
1.911
1.916
1.926
1.906
1.882
1.891
1.896
1.887
1.872
1.862
1.867
1.857
1.823
1.813
1.813
1.799
1.774
1.755
1.755
1.75
1.716
1.696
1.706
1.701
1.681
1.662
1.662
1.672
1.647
1.623
1.623
1.628
1.623
1.608
1.603
1.613
1.613
1.588
1.593
1.613
1.613
1.598
1.588
1.598
1.603
1.584
1.579
1.598
1.613
1.608
1.598
1.608
1.623
1.608
1.584
1.593
1.608
1.603
1.598
1.603
1.628
1.632
1.608
1.618
1.632
1.632
1.613
1.598
1.603
1.608
1.584
1.579
1.603
1.613
1.613
1.608
1.618
1.632
1.623
1.603
1.618
1.628
1.628
1.613
1.613
1.632
1.628
1.603
1.608
1.623
1.623
1.613
1.603
1.613
1.618
1.598
1.593
1.613
1.628
1.628
1.623
1.632
1.647
1.632
1.618
1.623
1.637
1.632
1.623
1.618
1.637
1.642
1.623
1.632
1.652
1.657
1.652
1.647
1.662
1.672
1.647
1.647
1.667
1.681
1.676
1.672
1.681
1.701
1.691
1.676
1.691
1.706
1.701
1.681
1.676
1.681
1.667
1.632
1.628
1.642
1.637
1.628
1.618
1.623
1.628
1.608
1.598
1.613
1.623
1.618
1.613
1.618
1.637
1.618
1.598
1.613
1.628
1.623
1.608
1.603
1.618
1.618
1.598
1.603
1.623
1.623
1.613
1.603
1.613
1.618
1.588
1.574
1.584
1.584
1.569
1.549
1.544
1.549
1.535
1.525
1.554
1.608
1.662
1.735
1.828
1.95
2.053
2.126
2.209
2.278
2.297
2.278
2.234
2.17
2.087
1.955
1.838
1.745
1.647
1.559
1.491
1.457
1.442
1.417
1.408
1.432
1.466
1.491
1.505
1.535
1.574
1.598
1.593
1.613
1.647
1.657
1.652
1.647
1.662
1.667
1.647
1.642
1.662
1.667
1.662
1.652
1.662
1.676
1.662
1.647
1.667
1.681
1.686
1.681
1.691
1.706
1.706
1.681
1.686
1.706
1.706
1.696
1.686
1.701
1.706
1.686
1.691
1.716
1.725
1.72
1.716
1.72
1.735
1.716
1.701
1.711
1.73
1.735
1.73
1.74
1.76
1.764
1.75
1.755
1.769
1.774
1.764
1.764
1.784
1.799
1.784
1.789
1.818
1.833
1.838
1.838
1.852
1.872
1.862
1.848
1.867
1.887
1.891
1.887
1.891
1.906
1.911
1.891
1.901
1.921
1.926
1.916
1.911
1.926
1.931
1.906
1.901
1.911
1.916
1.901
1.891
1.896
1.911
1.887
1.857
1.852
1.852
1.828
1.799
1.784
1.784
1.764
1.73
1.72
1.725
1.716
1.691
1.676
1.681
1.676
1.647
1.637
1.652
1.657
1.647
1.637
1.637
1.647
1.623
1.598
1.608
1.613
1.608
1.598
1.598
1.613
1.613
1.588
1.593
1.613
1.608
1.598
1.588
1.603
1.608
1.584
1.579
1.603
1.613
1.613
1.613
1.623
1.637
1.623
1.603
1.608
1.613
1.603
1.588
1.584
1.598
1.598
1.584
1.598
1.623
1.628
1.628
1.623
1.628
1.632
1.603
1.593
1.613
1.618
1.613
1.608
1.618
1.637
1.628
1.613
1.632
1.642
1.637
1.623
1.623
1.637
1.628
1.598
1.598
1.618
1.618
1.608
1.608
1.623
1.637
1.618
1.618
1.632
1.642
1.632
1.623
1.632
1.642
1.628
1.613
1.628
1.642
1.642
1.632
1.637
1.657
1.657
1.642
1.652
1.672
1.681
1.676
1.672
1.691
1.701
1.681
1.676
1.696
1.701
1.696
1.681
1.686
1.691
1.667
1.647
1.652
1.662
1.652
1.637
1.632
1.642
1.632
1.603
1.603
1.618
1.618
1.603
1.598
1.613
1.618
1.593
1.588
1.608
1.618
1.608
1.598
1.603
1.613
1.598
1.579
1.593
1.603
1.603
1.593
1.598
1.618
1.618
1.598
1.603
1.613
1.598
1.574
1.554
1.554
1.549
1.515
1.51
1.535
1.564
1.603
1.657
1.75
1.862
1.95
2.038
2.146
2.239
2.287
2.292
2.273
2.239
2.155
2.033
1.926
1.828
1.716
1.613
1.525
1.481
1.447
1.403
1.393
1.417
1.437
1.452
1.471
1.51
1.554
1.564
1.574
1.608
1.642
1.647
1.642
1.642
1.657
1.647
1.618
1.628
1.647
1.652
1.647
1.647
1.667
1.676
1.657
1.657
1.672
1.676
1.667
1.657
1.667
1.681
1.672
1.662
1.681
1.701
1.701
1.691
1.691
1.701
1.696
1.672
1.681
1.696
1.701
1.696
1.701
1.72
1.73
1.706
1.701
1.725
1.735
1.73
1.725
1.735
1.75
1.735
1.725
1.74
1.76
1.76
1.755
1.76
1.784
1.784
1.769
1.779
1.799
1.804
1.799
1.804
1.823
1.838
1.828
1.833
1.857
1.867
1.867
1.862
1.877
1.896
1.882
1.877
1.896
1.916
1.921
1.916
1.916
1.931
1.926
1.896
1.896
1.911
1.906
1.901
1.896
1.911
1.911
1.882
1.872
1.877
1.872
1.848
1.823
1.808
1.799
1.769
1.74
1.745
1.745
1.73
1.711
1.701
1.711
1.696
1.662
1.662
1.662
1.652
1.632
1.618
1.628
1.632
1.608
1.603
1.618
1.623
1.613
1.598
1.603
1.613
1.593
1.569
1.588
1.598
1.598
1.588
1.598
1.618
1.623
1.603
1.608
1.623
1.623
1.613
1.603
1.623
1.632
1.608
1.603
1.618
1.623
1.613
1.603
1.608
1.623
1.603
1.593
1.608
1.623
1.623
1.613
1.618
1.632
1.628
1.608
1.618
1.637
1.642
1.632
1.623
1.637
1.642
1.618
1.618
1.632
1.637
1.632
1.623
1.632
1.642
1.628
1.608
1.618
1.632
1.628
1.623
1.628
1.642
1.637
1.613
1.618
1.642
1.647
1.637
1.637
1.652
1.662
1.637
1.632
1.652
1.657
1.647
1.637
1.647
1.662
1.647
1.637
1.652
1.667
1.667
1.657
1.662
1.681
1.681
1.662
1.672
1.696
1.701
1.696
1.696
1.716
1.72
1.691
1.681
1.696
1.691
1.676
1.657
1.662
1.667
1.647
1.628
1.637
1.647
1.632
1.618
1.623
1.642
1.642
1.623
1.632
1.647
1.642
1.628
1.613
1.623
1.618
1.588
1.584
1.603
1.613
1.613
1.608
1.618
1.632
1.613
1.598
1.608
1.623
1.623
1.613
1.613
1.628
1.613
1.579
1.569
1.569
1.544
1.52
1.515
1.544
1.584
1.618
1.696
1.813
1.931
2.038
2.131
2.229
2.302
2.317
2.297
2.273
2.224
2.136
2.023
1.916
1.818
1.706
1.588
1.52
1.476
1.437
1.408
1.403
1.422
1.452
1.452
1.486
1.535
1.569
1.588
1.603
1.632
1.662
1.657
1.652
1.667
1.681
1.672
1.657
1.657
1.667
1.662
1.637
1.647
1.662
1.667
1.662
1.667
1.686
1.696
1.672
1.667
1.686
1.696
1.691
1.686
1.696
1.711
1.691
1.676
1.696
1.706
1.701
1.691
1.691
1.711
1.706
1.686
1.696
1.72
1.725
1.72
1.72
1.74
1.745
1.725
1.73
1.75
1.755
1.75
1.745
1.755
1.774
1.76
1.755
1.779
1.799
1.799
1.794
1.799
1.818
1.813
1.794
1.804
1.823
1.833
1.838
1.843
1.867
1.887
1.872
1.877
1.901
1.906
1.906
1.901
1.916
1.931
1.911
1.896
1.911
1.921
1.916
1.901
1.901
1.911
1.901
1.877
1.882
1.896
1.891
1.877
1.862
1.867
1.862
1.828
1.818
1.823
1.813
1.794
1.769
1.76
1.755
1.716
1.686
1.686
1.686
1.672
1.652
1.647
1.657
1.647
1.618
1.618
1.632
1.632
1.628
1.623
1.637
1.637
1.603
1.598
1.613
1.618
1.603
1.588
1.598
1.613
1.598
1.588
1.608
1.618
1.613
1.603
1.608
1.623
1.613
1.588
1.598
1.613
1.613
1.603
1.603
1.618
1.623
1.603
1.603
1.623
1.628
1.613
1.603
1.613
1.623
1.608
1.598
1.613
1.628
1.623
1.613
1.613
1.632
1.623
1.603
1.613
1.632
1.637
1.628
1.628
1.642
1.647
1.618
1.618
1.632
1.632
1.628
1.623
1.632
1.642
1.628
1.613
1.623
1.632
1.628
1.618
1.623
1.642
1.637
1.623
1.632
1.652
1.652
1.642
1.642
1.657
1.657
1.628
1.628
1.642
1.642
1.632
1.628
1.637
1.652
1.642
1.632
1.657
1.676
1.681
1.681
1.686
1.706
1.701
1.676
1.686
1.696
1.696
1.686
1.686
1.701
1.701
1.676
1.672
1.686
1.686
1.667
1.652
1.652
1.662
1.637
1.618
1.632
1.642
1.632
1.618
1.613
1.623
1.613
1.593
1.598
1.613
1.613
1.603
1.603
1.623
1.632
1.608
1.613
1.632
1.632
1.618
1.608
1.613
1.623
1.603
1.593
1.608
1.623
1.618
1.603
1.593
1.593
1.569
1.53
1.525
1.525
1.525
1.525
1.554
1.623
1.706
1.774
1.877
2.004
2.111
2.19
2.248
2.297
2.312
2.273
2.204
2.141
2.053
1.935
1.808
1.701
1.623
1.535
1.457
1.427
1.427
1.427
1.432
1.452
1.496
1.525
1.53
1.549
1.588
1.608
1.618
1.628
1.647
1.662
1.652
1.642
1.657
1.672
1.667
1.662
1.662
1.676
1.662
1.637
1.642
1.662
1.667
1.667
1.667
1.686
1.696
1.672
1.672
1.686
1.686
1.676
1.667
1.681
1.696
1.681
1.672
1.686
1.701
1.701
1.691
1.696
1.72
1.716
1.701
1.716
1.735
1.735
1.73
1.735
1.75
1.755
1.735
1.735
1.755
1.76
1.755
1.745
1.76
1.774
1.76
1.755
1.779
1.794
1.799
1.799
1.813
1.838
1.838
1.818
1.828
1.848
1.852
1.843
1.843
1.857
1.867
1.852
1.857
1.882
1.891
1.887
1.887
1.901
1.916
1.901
1.896
1.916
1.931
1.926
1.906
1.906
1.916
1.901
1.877
1.882
1.891
1.882
1.867
1.852
1.852
1.838
1.794
1.779
1.779
1.774
1.755
1.735
1.735
1.74
1.711
1.686
1.691
1.691
1.676
1.652
1.642
1.647
1.632
1.608
1.613
1.623
1.618
1.603
1.598
1.613
1.613
1.584
1.579
1.593
1.603
1.598
1.593
1.613
1.623
1.608
1.593
1.608
1.618
1.608
1.598
1.603
1.618
1.608
1.588
1.598
1.618
1.613
1.603
1.598
1.613
1.613
1.593
1.593
1.613
1.618
1.608
1.603
1.613
1.628
1.603
1.593
1.613
1.628
1.623
1.618
1.628
1.642
1.637
1.618
1.623
1.642
1.632
1.623
1.618
1.632
1.637
1.613
1.613
1.628
1.628
1.618
1.603
1.608
1.623
1.603
1.598
1.623
1.637
1.637
1.628
1.632
1.642
1.628
1.603
1.608
1.628
1.623
1.618
1.623
1.642
1.647
1.623
1.623
1.642
1.642
1.637
1.628
1.637
1.647
1.632
1.628
1.647
1.662
1.667
1.662
1.672
1.691
1.691
1.676
1.686
1.701
1.701
1.686
1.676
1.691
1.691
1.662
1.662
1.676
1.676
1.662
1.652
1.657
1.662
1.632
1.618
1.632
1.642
1.632
1.623
1.623
1.632
1.618
1.598
1.608
1.623
1.628
1.623
1.623
1.637
1.637
1.613
1.613
1.628
1.632
1.623
1.618
1.628
1.642
1.623
1.613
1.628
1.632
1.623
1.608
1.608
1.618
1.593
1.559
1.554
1.559
1.544
1.535
1.54
1.579
1.623
1.662
1.745
1.862
1.97
2.063
2.141
2.224
2.278
2.273
2.239
2.204
2.136
2.033
1.916
1.808
1.72
1.623
1.53
1.486
1.466
1.447
1.437
1.442
1.471
1.496
1.496
1.525
1.564
1.588
1.603
1.613
1.637
1.657
1.642
1.628
1.642
1.652
1.647
1.642
1.647
1.662
1.652
1.632
1.647
1.667
1.667
1.662
1.662
1.686
1.696
1.672
1.672
1.686
1.681
1.667
1.657
1.662
1.676
1.662
1.662
1.691
1.711
1.711
1.711
1.716
1.735
1.725
1.706
1.72
1.735
1.73
1.72
1.716
1.73
1.73
1.711
1.711
1.73
1.74
1.74
1.74
1.76
1.769
1.75
1.74
1.76
1.774
1.779
1.774
1.784
1.808
1.804
1.794
1.808
1.833
1.838
1.838
1.843
1.867
1.877
1.857
1.867
1.891
1.896
1.891
1.887
1.901
1.916
1.896
1.891
1.911
1.921
1.916
1.901
1.906
1.916
1.901
1.877
1.887
1.896
1.891
1.877
1.867
1.877
1.862
1.823
1.804
1.808
1.794
1.769
1.75
1.745
1.745
1.711
1.686
1.691
1.691
1.672
1.647
1.642
1.657
1.642
1.618
1.628
1.642
1.637
1.623
1.618
1.628
1.628
1.598
1.598
1.613
1.608
1.603
1.593
1.603
1.613
1.593
1.584
1.603
1.613
1.613
1.603
1.603
1.618
1.608
1.593
1.608
1.623
1.623
1.613
1.613
1.632
1.628
1.598
1.593
1.613
1.618
1.613
1.613
1.628
1.647
1.628
1.618
1.632
1.637
1.632
1.618
1.618
1.632
1.623
1.598
1.613
1.628
1.628
1.623
1.623
1.637
1.642
1.618
1.623
1.647
1.647
1.637
1.628
1.632
1.642
1.618
1.608
1.628
1.642
1.637
1.632
1.642
1.662
1.652
1.628
1.637
1.647
1.642
1.628
1.623
1.637
1.642
1.623
1.632
1.657
1.667
1.657
1.652
1.662
1.672
1.647
1.637
1.652
1.667
1.662
1.662
1.676
1.696
1.686
1.672
1.681
1.701
1.701
1.686
1.686
1.701
1.696
1.667
1.657
1.662
1.652
1.637
1.623
1.632
1.642
1.618
1.608
1.628
1.637
1.632
1.623
1.628
1.637
1.623
1.598
1.608
1.623
1.618
1.608
1.608
1.628
1.628
1.603
1.608
1.628
1.632
1.623
1.618
1.628
1.637
1.618
1.603
1.608
1.608
1.584
1.559
1.549
1.554
1.535
1.525
1.564
1.628
1.696
1.774
1.867
1.979
2.072
2.126
2.185
2.234
2.239
2.199
2.136
2.063
1.979
1.857
1.745
1.672
1.598
1.525
1.471
1.447
1.452
1.442
1.432
1.461
1.496
1.51
1.525
1.544
1.579
1.598
1.588
1.603
1.632
1.647
1.642
1.642
1.652
1.667
1.652
1.647
1.662
1.676
1.672
1.657
1.662
1.672
1.662
1.642
1.662
1.681
1.686
1.681
1.686
1.701
1.701
1.672
1.672
1.681
1.681
1.676
1.676
1.691
1.711
1.696
1.691
1.711
1.72
1.716
1.706
1.716
1.735
1.725
1.701
1.711
1.73
1.73
1.725
1.73
1.745
1.75
1.73
1.74
1.76
1.764
1.755
1.75
1.764
1.779
1.764
1.764
1.789
1.808
1.813
1.813
1.828
1.852
1.848
1.833
1.848
1.867
1.862
1.857
1.857
1.882
1.887
1.872
1.887
1.906
1.916
1.916
1.906
1.916
1.921
1.896
1.887
1.896
1.906
1.896
1.887
1.891
1.896
1.877
1.848
1.848
1.848
1.828
1.804
1.784
1.784
1.769
1.73
1.72
1.725
1.72
1.701
1.681
1.681
1.681
1.652
1.637
1.647
1.647
1.637
1.623
1.623
1.628
1.613
1.588
1.598
1.618
1.613
1.608
1.608
1.623
1.623
1.598
1.593
1.603
1.598
1.588
1.579
1.593
1.608
1.593
1.584
1.603
1.613
1.603
1.593
1.598
1.613
1.603
1.584
1.598
1.618
1.613
1.603
1.598
1.618
1.618
1.593
1.598
1.618
1.623
1.623
1.618
1.628
1.632
1.608
1.598
1.613
1.623
1.618
1.608
1.613
1.632
1.623
1.603
1.618
1.632
1.628
1.623
1.623
1.637
1.637
1.613
1.618
1.632
1.637
1.628
1.618
1.628
1.632
1.608
1.598
1.613
1.623
1.618
1.613
1.618
1.632
1.623
1.608
1.623
1.642
1.642
1.632
1.632
1.647
1.647
1.623
1.623
1.642
1.647
1.642
1.637
1.647
1.662
1.642
1.637
1.657
1.667
1.667
1.667
1.686
1.711
1.706
1.691
1.701
1.716
1.711
1.696
1.686
1.696
1.686
1.652
1.647
1.657
1.652
1.637
1.628
1.637
1.642
1.618
1.608
1.623
1.628
1.613
1.598
1.603
1.618
1.613
1.603
1.618
1.637
1.637
1.628
1.628
1.637
1.632
1.603
1.603
1.618
1.623
1.618
1.613
1.628
1.637
1.613
1.598
1.608
1.603
1.584
1.564
1.554
1.559
1.544
1.53
1.554
1.598
1.642
1.696
1.779
1.887
1.984
2.058
2.151
2.239
2.283
2.287
2.268
2.234
2.17
2.058
1.945
1.852
1.755
1.657
1.569
1.515
1.486
1.452
1.427
1.447
1.471
1.486
1.496
1.52
1.554
1.574
1.569
1.588
1.623
1.642
1.642
1.642
1.657
1.662
1.632
1.623
1.642
1.652
1.652
1.647
1.657
1.676
1.667
1.647
1.657
1.667
1.662
1.652
1.652
1.676
1.676
1.657
1.667
1.691
1.696
1.686
1.681
1.696
1.706
1.681
1.676
1.696
1.706
1.696
1.691
1.701
1.716
1.706
1.686
1.696
1.711
1.711
1.706
1.711
1.735
1.73
1.711
1.72
1.74
1.74
1.735
1.735
1.75
1.764
1.755
1.76
1.784
1.799
1.799
1.794
1.804
1.823
1.818
1.804
1.823
1.848
1.852
1.852
1.862
1.882
1.882
1.857
1.862
1.882
1.887
1.882
1.877
1.896
1.911
1.896
1.891
1.916
1.921
1.906
1.887
1.882
1.887
1.867
1.838
1.843
1.848
1.838
1.818
1.804
1.808
1.794
1.755
1.745
1.75
1.74
1.716
1.696
1.691
1.686
1.652
1.637
1.647
1.647
1.632
1.623
1.628
1.642
1.628
1.603
1.618
1.628
1.623
1.608
1.608
1.623
1.618
1.593
1.593
1.608
1.608
1.598
1.593
1.608
1.613
1.588
1.584
1.608
1.613
1.608
1.598
1.603
1.618
1.608
1.588
1.608
1.628
1.632
1.623
1.623
1.632
1.632
1.603
1.603
1.618
1.613
1.603
1.598
1.608
1.618
1.598
1.598
1.618
1.628
1.623
1.613
1.618
1.632
1.618
1.598
1.613
1.628
1.628
1.618
1.618
1.637
1.632
1.608
1.618
1.637
1.642
1.632
1.628
1.637
1.642
1.618
1.613
1.628
1.632
1.628
1.618
1.623
1.642
1.632
1.618
1.632
1.647
1.642
1.637
1.637
1.652
1.647
1.623
1.628
1.647
1.642
1.632
1.628
1.642
1.647
1.628
1.623
1.647
1.657
1.657
1.652
1.667
1.681
1.672
1.657
1.676
1.696
1.691
1.686
1.691
1.706
1.706
1.681
1.686
1.701
1.696
1.686
1.681
1.691
1.696
1.667
1.652
1.657
1.652
1.637
1.623
1.632
1.642
1.628
1.608
1.623
1.632
1.628
1.613
1.613
1.628
1.623
1.603
1.613
1.632
1.637
1.628
1.618
1.628
1.632
1.608
1.598
1.618
1.628
1.623
1.618
1.623
1.632
1.613
1.584
1.584
1.584
1.564
1.54
1.535
1.554
1.564
1.569
1.623
1.716
1.804
1.901
2.004
2.116
2.219
2.273
2.312
2.341
2.331
2.273
2.19
2.097
1.994
1.862
1.73
1.647
1.584
1.52
1.476
1.457
1.466
1.471
1.461
1.491
1.535
1.554
1.569
1.579
1.608
1.632
1.623
1.628
1.652
1.662
1.657
1.647
1.652
1.662
1.652
1.642
1.657
1.676
1.672
1.662
1.662
1.681
1.681
1.657
1.662
1.681
1.681
1.672
1.672
1.686
1.696
1.667
1.662
1.681
1.686
1.686
1.681
1.691
1.711
1.696
1.681
1.696
1.716
1.716
1.706
1.711
1.73
1.73
1.706
1.716
1.735
1.74
1.735
1.735
1.755
1.774
1.755
1.75
1.769
1.779
1.769
1.755
1.764
1.779
1.774
1.764
1.789
1.813
1.813
1.813
1.818
1.833
1.833
1.813
1.828
1.857
1.867
1.867
1.877
1.901
1.911
1.891
1.887
1.906
1.911
1.906
1.901
1.906
1.921
1.906
1.891
1.901
1.916
1.911
1.896
1.896
1.906
1.891
1.852
1.848
1.848
1.833
1.813
1.794
1.794
1.784
1.75
1.73
1.735
1.725
1.706
1.681
1.676
1.681
1.652
1.628
1.637
1.647
1.637
1.628
1.632
1.642
1.637
1.608
1.608
1.623
1.618
1.603
1.598
1.613
1.623
1.603
1.598
1.618
1.623
1.613
1.603
1.608
1.623
1.608
1.593
1.608
1.623
1.623
1.618
1.618
1.632
1.628
1.603
1.613
1.628
1.628
1.618
1.608
1.623
1.628
1.608
1.598
1.623
1.628
1.628
1.623
1.632
1.647
1.628
1.608
1.623
1.632
1.628
1.618
1.618
1.637
1.637
1.618
1.623
1.642
1.642
1.628
1.618
1.632
1.642
1.618
1.618
1.637
1.642
1.637
1.632
1.642
1.657
1.642
1.623
1.642
1.652
1.647
1.632
1.628
1.637
1.632
1.608
1.618
1.637
1.642
1.642
1.642
1.662
1.676
1.652
1.647
1.662
1.667
1.657
1.642
1.647
1.657
1.642
1.628
1.642
1.662
1.662
1.657
1.667
1.691
1.696
1.676
1.691
1.711
1.711
1.706
1.706
1.72
1.73
1.701
1.696
1.706
1.701
1.681
1.662
1.657
1.662
1.637
1.618
1.632
1.642
1.637
1.632
1.632
1.652
1.647
1.623
1.632
1.652
1.652
1.647
1.642
1.647
1.652
1.618
1.608
1.623
1.628
1.623
1.618
1.632
1.652
1.637
1.623
1.637
1.647
1.637
1.623
1.618
1.623
1.608
1.574
1.569
1.574
1.569
1.569
1.588
1.642
1.711
1.769
1.862
1.979
2.082
2.165
2.224
2.273
2.297
2.263
2.199
2.146
2.072
1.97
1.852
1.755
1.681
1.608
1.525
1.496
1.486
1.471
1.466
1.471
1.496
1.52
1.515
1.535
1.574
1.608
1.618
1.628
1.652
1.676
1.667
1.657
1.672
1.681
1.672
1.657
1.662
1.672
1.672
1.652
1.662
1.686
1.696
1.691
1.696
1.711
1.716
1.691
1.681
1.701
1.701
1.696
1.686
1.696
1.711
1.696
1.691
1.711
1.72
1.716
1.701
1.701
1.716
1.711
1.686
1.696
1.716
1.72
1.72
1.72
1.74
1.75
1.725
1.725
1.74
1.745
1.74
1.735
1.745
1.764
1.755
1.745
1.769
1.789
1.794
1.794
1.804
1.823
1.828
1.813
1.828
1.857
1.862
1.857
1.852
1.867
1.877
1.852
1.852
1.877
1.887
1.887
1.887
1.901
1.921
1.906
1.896
1.911
1.921
1.916
1.906
1.906
1.921
1.916
1.887
1.891
1.896
1.891
1.872
1.857
1.857
1.852
1.813
1.804
1.813
1.808
1.789
1.769
1.764
1.764
1.73
1.706
1.706
1.706
1.696
1.681
1.681
1.686
1.672
1.637
1.637
1.642
1.632
1.618
1.613
1.628
1.632
1.618
1.618
1.637
1.642
1.628
1.613
1.613
1.618
1.598
1.579
1.598
1.613
1.613
1.608
1.618
1.637
1.632
1.608
1.618
1.632
1.628
1.613
1.608
1.618
1.623
1.603
1.603
1.623
1.632
1.628
1.623
1.632
1.647
1.628
1.618
1.632
1.642
1.637
1.628
1.628
1.642
1.632
1.608
1.623
1.642
1.647
1.642
1.642
1.657
1.667
1.642
1.642
1.652
1.652
1.637
1.623
1.628
1.637
1.618
1.603
1.623
1.642
1.642
1.637
1.642
1.662
1.652
1.628
1.637
1.652
1.652
1.642
1.642
1.657
1.662
1.637
1.637
1.652
1.657
1.647
1.642
1.652
1.662
1.642
1.628
1.642
1.657
1.652
1.652
1.657
1.681
1.676
1.662
1.672
1.686
1.686
1.676
1.676
1.691
1.696
1.676
1.676
1.691
1.696
1.681
1.667
1.676
1.686
1.667
1.657
1.672
1.686
1.681
1.667
1.667
1.676
1.662
1.628
1.632
1.642
1.637
1.628
1.628
1.642
1.647
1.628
1.628
1.642
1.647
1.637
1.628
1.637
1.647
1.628
1.618
1.632
1.652
1.647
1.632
1.637
1.657
1.647
1.623
1.623
1.628
1.613
1.593
1.574
1.574
1.569
1.535
1.535
1.564
1.598
1.637
1.691
1.784
1.887
1.955
2.038
2.131
2.209
2.248
2.248
2.229
2.199
2.121
2.014
1.926
1.843
1.745
1.652
1.579
1.544
1.51
1.461
1.457
1.481
1.5
1.505
1.515
1.544
1.579
1.584
1.593
1.623
1.642
1.647
1.647
1.662
1.681
1.676
1.652
1.657
1.667
1.662
1.652
1.647
1.662
1.662
1.642
1.647
1.672
1.681
1.681
1.672
1.686
1.701
1.686
1.676
1.691
1.701
1.696
1.686
1.691
1.711
1.701
1.676
1.691
1.706
1.706
1.701
1.701
1.716
1.72
1.696
1.696
1.716
1.725
1.725
1.725
1.74
1.755
1.74
1.73
1.75
1.764
1.769
1.76
1.764
1.784
1.779
1.76
1.769
1.789
1.789
1.784
1.784
1.808
1.818
1.804
1.808
1.838
1.848
1.848
1.852
1.867
1.887
1.877
1.872
1.891
1.906
1.901
1.891
1.891
1.911
1.906
1.887
1.901
1.926
1.926
1.916
1.906
1.916
1.906
1.872
1.862
1.872
1.867
1.848
1.828
1.828
1.828
1.799
1.769
1.769
1.764
1.745
1.725
1.716
1.72
1.701
1.667
1.667
1.676
1.672
1.652
1.647
1.652
1.652
1.623
1.623
1.632
1.632
1.623
1.618
1.628
1.642
1.623
1.613
1.628
1.637
1.628
1.613
1.613
1.628
1.623
1.603
1.613
1.628
1.628
1.618
1.613
1.628
1.623
1.598
1.598
1.623
1.628
1.628
1.623
1.632
1.642
1.628
1.618
1.632
1.637
1.628
1.618
1.623
1.642
1.632
1.613
1.623
1.637
1.632
1.628
1.628
1.647
1.647
1.618
1.623
1.637
1.642
1.632
1.628
1.637
1.652
1.637
1.628
1.647
1.652
1.647
1.637
1.642
1.657
1.647
1.623
1.632
1.647
1.642
1.632
1.628
1.642
1.647
1.628
1.632
1.652
1.657
1.647
1.637
1.647
1.652
1.632
1.623
1.637
1.647
1.642
1.632
1.642
1.652
1.642
1.623
1.637
1.657
1.657
1.652
1.652
1.667
1.667
1.637
1.632
1.652
1.652
1.647
1.647
1.672
1.691
1.676
1.667
1.686
1.701
1.696
1.681
1.686
1.706
1.701
1.681
1.691
1.711
1.706
1.696
1.686
1.696
1.691
1.657
1.652
1.662
1.662
1.647
1.632
1.637
1.647
1.628
1.618
1.642
1.657
1.657
1.647
1.652
1.672
1.657
1.632
1.637
1.642
1.637
1.623
1.623
1.637
1.642
1.623
1.628
1.647
1.657
1.652
1.642
1.647
1.647
1.618
1.598
1.598
1.593
1.574
1.554
1.554
1.574
1.579
1.584
1.637
1.716
1.789
1.872
1.965
2.067
2.155
2.199
2.239
2.268
2.253
2.195
2.121
2.048
1.965
1.843
1.74
1.672
1.618
1.569
1.525
1.51
1.52
1.51
1.496
1.515
1.54
1.554
1.564
1.579
1.613
1.632
1.623
1.637
1.662
1.667
1.657
1.642
1.652
1.662
1.642
1.642
1.667
1.686
1.686
1.676
1.681
1.691
1.676
1.657
1.667
1.681
1.681
1.676
1.676
1.696
1.701
1.676
1.681
1.701
1.701
1.691
1.681
1.696
1.706
1.691
1.681
1.701
1.716
1.711
1.706
1.711
1.725
1.716
1.696
1.706
1.72
1.72
1.716
1.72
1.74
1.745
1.725
1.735
1.755
1.764
1.76
1.755
1.769
1.784
1.774
1.769
1.794
1.808
1.808
1.799
1.808
1.823
1.818
1.804
1.818
1.843
1.843
1.838
1.848
1.867
1.877
1.852
1.857
1.872
1.877
1.872
1.867
1.882
1.891
1.877
1.867
1.882
1.882
1.872
1.852
1.848
1.852
1.833
1.804
1.808
1.813
1.804
1.784
1.779
1.784
1.769
1.735
1.725
1.735
1.73
1.711
1.696
1.701
1.701
1.667
1.647
1.652
1.652
1.637
1.623
1.628
1.642
1.632
1.608
1.623
1.637
1.637
1.623
1.618
1.623
1.618
1.588
1.593
1.613
1.618
1.613
1.608
1.623
1.632
1.613
1.603
1.618
1.628
1.618
1.608
1.608
1.623
1.613
1.593
1.603
1.618
1.618
1.613
1.618
1.632
1.637
1.613
1.618
1.637
1.642
1.632
1.628
1.642
1.652
1.628
1.618
1.632
1.637
1.632
1.618
1.618
1.632
1.623
1.608
1.623
1.637
1.637
1.628
1.628
1.642
1.647
1.623
1.623
1.642
1.637
1.628
1.618
1.628
1.637
1.613
1.608
1.628
1.642
1.637
1.632
1.637
1.657
1.642
1.623
1.632
1.647
1.642
1.628
1.628
1.647
1.647
1.623
1.628
1.642
1.642
1.637
1.628
1.642
1.647
1.628
1.618
1.637
1.642
1.637
1.628
1.637
1.652
1.642
1.628
1.642
1.657
1.662
1.657
1.657
1.672
1.672
1.652
1.662
1.681
1.691
1.686
1.686
1.706
1.716
1.696
1.686
1.701
1.701
1.686
1.667
1.667
1.681
1.667
1.642
1.652
1.667
1.657
1.647
1.637
1.647
1.642
1.618
1.613
1.628
1.632
1.628
1.623
1.637
1.647
1.623
1.613
1.632
1.637
1.632
1.623
1.628
1.647
1.637
1.618
1.628
1.647
1.642
1.632
1.632
1.642
1.637
1.598
1.593
1.593
1.579
1.554
1.54
1.559
1.593
1.623
1.686
1.789
1.901
1.999
2.087
2.18
2.263
2.287
2.278
2.273
2.243
2.17
2.077
1.979
1.896
1.794
1.676
1.608
1.569
1.53
1.5
1.486
1.5
1.52
1.52
1.535
1.579
1.608
1.618
1.623
1.642
1.667
1.662
1.642
1.657
1.667
1.657
1.647
1.647
1.667
1.662
1.637
1.642
1.667
1.676
1.672
1.672
1.686
1.696
1.672
1.662
1.676
1.681
1.672
1.667
1.672
1.691
1.681
1.667
1.681
1.696
1.696
1.686
1.696
1.716
1.72
1.696
1.706
1.725
1.73
1.72
1.711
1.72
1.73
1.711
1.701
1.72
1.735
1.725
1.72
1.725
1.745
1.735
1.72
1.735
1.76
1.76
1.755
1.76
1.779
1.779
1.76
1.769
1.794
1.804
1.804
1.804
1.823
1.838
1.818
1.813
1.838
1.852
1.852
1.852
1.867
1.891
1.887
1.867
1.882
1.896
1.891
1.877
1.877
1.882
1.877
1.852
1.852
1.867
1.862
1.848
1.838
1.848
1.852
1.823
1.813
1.818
1.818
1.794
1.769
1.755
1.755
1.72
1.691
1.691
1.701
1.691
1.676
1.667
1.676
1.667
1.637
1.632
1.647
1.647
1.637
1.628
1.637
1.642
1.623
1.618
1.632
1.637
1.628
1.618
1.623
1.642
1.628
1.613
1.628
1.637
1.632
1.623
1.618
1.632
1.628
1.598
1.603
1.618
1.623
1.613
1.608
1.618
1.623
1.598
1.593
1.613
1.628
1.628
1.623
1.632
1.647
1.632
1.618
1.632
1.642
1.637
1.628
1.632
1.647
1.647
1.628
1.628
1.642
1.642
1.628
1.618
1.632
1.642
1.618
1.618
1.637
1.642
1.642
1.632
1.642
1.657
1.637
1.623
1.637
1.652
1.647
1.637
1.632
1.647
1.642
1.613
1.613
1.628
1.628
1.618
1.618
1.632
1.647
1.628
1.623
1.642
1.647
1.637
1.628
1.637
1.657
1.642
1.628
1.642
1.652
1.647
1.637
1.637
1.657
1.657
1.632
1.642
1.662
1.672
1.667
1.662
1.672
1.672
1.647
1.642
1.652
1.652
1.642
1.637
1.647
1.667
1.662
1.657
1.681
1.706
1.711
1.706
1.706
1.72
1.716
1.686
1.691
1.706
1.701
1.686
1.676
1.686
1.691
1.662
1.657
1.672
1.672
1.662
1.647
1.647
1.657
1.637
1.613
1.623
1.637
1.637
1.628
1.632
1.652
1.652
1.628
1.632
1.647
1.642
1.632
1.628
1.642
1.652
1.628
1.623
1.642
1.647
1.637
1.623
1.623
1.628
1.603
1.574
1.579
1.584
1.569
1.549
1.549
1.579
1.603
1.628
1.706
1.813
1.916
2.009
2.107
2.209
2.287
2.307
2.317
2.317
2.273
2.195
2.092
1.994
1.896
1.779
1.672
1.613
1.569
1.52
1.486
1.476
1.496
1.505
1.5
1.53
1.574
1.598
1.613
1.623
1.647
1.662
1.637
1.632
1.647
1.652
1.642
1.637
1.652
1.676
1.662
1.652
1.662
1.676
1.672
1.662
1.667
1.686
1.681
1.662
1.667
1.686
1.686
1.676
1.672
1.681
1.681
1.657
1.657
1.676
1.681
1.676
1.672
1.686
1.706
1.696
1.681
1.696
1.711
1.706
1.696
1.696
1.716
1.711
1.686
1.701
1.725
1.73
1.725
1.725
1.745
1.755
1.735
1.735
1.755
1.76
1.755
1.745
1.76
1.779
1.774
1.764
1.789
1.808
1.808
1.808
1.813
1.833
1.828
1.808
1.818
1.838
1.843
1.838
1.838
1.857
1.867
1.852
1.852
1.877
1.887
1.882
1.872
1.877
1.887
1.867
1.848
1.852
1.862
1.852
1.838
1.838
1.848
1.838
1.804
1.804
1.813
1.804
1.784
1.769
1.764
1.755
1.72
1.701
1.701
1.696
1.681
1.662
1.667
1.672
1.652
1.632
1.647
1.657
1.647
1.632
1.632
1.642
1.632
1.608
1.608
1.623
1.623
1.608
1.603
1.623
1.628
1.603
1.598
1.618
1.623
1.623
1.618
1.628
1.637
1.618
1.603
1.618
1.632
1.628
1.618
1.618
1.628
1.618
1.588
1.598
1.613
1.613
1.608
1.613
1.632
1.642
1.623
1.623
1.642
1.642
1.628
1.613
1.613
1.623
1.608
1.593
1.608
1.623
1.623
1.618
1.623
1.642
1.642
1.618
1.628
1.642
1.642
1.632
1.623
1.637
1.642
1.623
1.618
1.637
1.642
1.632
1.623
1.632
1.642
1.623
1.608
1.623
1.632
1.628
1.623
1.628
1.652
1.652
1.628
1.637
1.652
1.647
1.637
1.628
1.637
1.642
1.623
1.623
1.642
1.652
1.647
1.642
1.647
1.657
1.632
1.613
1.628
1.642
1.637
1.632
1.637
1.657
1.657
1.637
1.642
1.657
1.652
1.642
1.637
1.652
1.662
1.642
1.642
1.667
1.676
1.681
1.681
1.696
1.72
1.706
1.696
1.716
1.725
1.72
1.701
1.696
1.706
1.696
1.667
1.672
1.686
1.681
1.667
1.652
1.662
1.657
1.623
1.618
1.637
1.647
1.637
1.628
1.632
1.647
1.628
1.613
1.623
1.637
1.632
1.623
1.632
1.652
1.647
1.623
1.628
1.642
1.637
1.632
1.623
1.637
1.637
1.608
1.603
1.618
1.618
1.598
1.584
1.579
1.584
1.559
1.544
1.564
1.593
1.628
1.676
1.76
1.867
1.965
2.043
2.151
2.243
2.302
2.322
2.312
2.297
2.243
2.136
2.038
1.945
1.848
1.74
1.642
1.574
1.535
1.481
1.452
1.466
1.486
1.505
1.515
1.54
1.574
1.588
1.584
1.608
1.637
1.647
1.647
1.647
1.662
1.667
1.637
1.632
1.652
1.662
1.657
1.647
1.657
1.672
1.657
1.642
1.657
1.676
1.672
1.667
1.676
1.691
1.691
1.662
1.672
1.686
1.686
1.676
1.672
1.686
1.696
1.672
1.672
1.691
1.701
1.701
1.691
1.701
1.72
1.701
1.686
1.701
1.716
1.711
1.706
1.711
1.74
1.74
1.72
1.725
1.74
1.735
1.725
1.72
1.735
1.745
1.725
1.74
1.764
1.779
1.779
1.779
1.789
1.799
1.784
1.774
1.794
1.818
1.823
1.823
1.833
1.857
1.857
1.838
1.848
1.867
1.867
1.857
1.852
1.867
1.877
1.857
1.862
1.887
1.891
1.887
1.872
1.872
1.877
1.848
1.823
1.828
1.838
1.833
1.818
1.808
1.813
1.794
1.755
1.75
1.75
1.735
1.716
1.706
1.716
1.711
1.676
1.662
1.672
1.662
1.647
1.628
1.632
1.647
1.628
1.613
1.628
1.637
1.628
1.613
1.613
1.623
1.613
1.588
1.598
1.613
1.608
1.603
1.603
1.618
1.623
1.603
1.603
1.618
1.623
1.608
1.598
1.603
1.613
1.598
1.588
1.608
1.623
1.618
1.608
1.613
1.632
1.632
1.613
1.623
1.637
1.628
1.618
1.613
1.623
1.623
1.593
1.593
1.613
1.623
1.623
1.618
1.632
1.657
1.642
1.632
1.647
1.652
1.642
1.632
1.628
1.637
1.628
1.603
1.613
1.637
1.642
1.637
1.637
1.657
1.657
1.628
1.623
1.637
1.637
1.632
1.623
1.628
1.642
1.623
1.608
1.618
1.628
1.618
1.608
1.613
1.632
1.628
1.613
1.623
1.647
1.652
1.647
1.647
1.662
1.662
1.637
1.632
1.647
1.647
1.637
1.628
1.637
1.652
1.637
1.628
1.647
1.662
1.657
1.647
1.652
1.672
1.672
1.657
1.676
1.701
1.706
1.701
1.701
1.716
1.72
1.691
1.686
1.701
1.696
1.686
1.672
1.681
1.691
1.672
1.657
1.667
1.672
1.657
1.637
1.637
1.647
1.632
1.603
1.613
1.632
1.637
1.632
1.632
1.647
1.652
1.628
1.618
1.637
1.637
1.632
1.623
1.637
1.647
1.628
1.613
1.628
1.642
1.637
1.623
1.623
1.637
1.632
1.613
1.613
1.618
1.598
1.574
1.559
1.564
1.569
1.564
1.598
1.676
1.764
1.852
1.955
2.067
2.18
2.248
2.292
2.331
2.336
2.302
2.229
2.141
2.038
1.906
1.764
1.662
1.588
1.52
1.471
1.452
1.466
1.486
1.476
1.486
1.52
1.544
1.549
1.559
1.579
1.608
1.608
1.613
1.642
1.662
1.662
1.657
1.657
1.672
1.667
1.647
1.657
1.676
1.672
1.662
1.657
1.672
1.676
1.652
1.657
1.681
1.696
1.691
1.691
1.706
1.72
1.701
1.686
1.701
1.716
1.716
1.711
1.72
1.745
1.735
1.716
1.716
1.725
1.72
1.711
1.711
1.725
1.73
1.706
1.711
1.73
1.73
1.72
1.711
1.72
1.73
1.716
1.711
1.73
1.755
1.755
1.75
1.755
1.774
1.774
1.76
1.774
1.799
1.804
1.799
1.799
1.818
1.828
1.808
1.813
1.838
1.848
1.848
1.848
1.867
1.891
1.882
1.877
1.901
1.921
1.916
1.906
1.901
1.911
1.891
1.857
1.857
1.867
1.862
1.852
1.848
1.857
1.857
1.828
1.818
1.828
1.818
1.799
1.774
1.774
1.774
1.745
1.72
1.725
1.73
1.716
1.701
1.696
1.701
1.686
1.652
1.652
1.657
1.647
1.632
1.623
1.632
1.632
1.603
1.603
1.623
1.628
1.623
1.613
1.623
1.632
1.613
1.603
1.618
1.628
1.618
1.613
1.618
1.628
1.618
1.593
1.593
1.608
1.608
1.603
1.598
1.618
1.623
1.598
1.603
1.623
1.628
1.618
1.613
1.628
1.637
1.623
1.613
1.628
1.637
1.632
1.623
1.628
1.647
1.637
1.618
1.628
1.642
1.642
1.632
1.628
1.637
1.642
1.613
1.618
1.637
1.642
1.632
1.628
1.642
1.657
1.637
1.632
1.652
1.662
1.657
1.647
1.647
1.657
1.642
1.618
1.623
1.637
1.632
1.623
1.618
1.637
1.637
1.613
1.613
1.632
1.632
1.628
1.618
1.632
1.647
1.632
1.628
1.652
1.667
1.667
1.657
1.657
1.672
1.662
1.637
1.647
1.667
1.667
1.667
1.672
1.701
1.711
1.691
1.691
1.706
1.711
1.706
1.696
1.701
1.711
1.686
1.672
1.686
1.691
1.681
1.662
1.657
1.662
1.647
1.623
1.628
1.642
1.632
1.623
1.623
1.637
1.637
1.618
1.623
1.647
1.652
1.642
1.632
1.637
1.642
1.618
1.603
1.618
1.628
1.628
1.628
1.637
1.657
1.642
1.618
1.623
1.632
1.623
1.608
1.593
1.603
1.593
1.564
1.559
1.564
1.564
1.554
1.559
1.598
1.657
1.706
1.784
1.896
2.004
2.092
2.17
2.239
2.292
2.292
2.248
2.199
2.136
2.028
1.906
1.794
1.701
1.608
1.51
1.461
1.447
1.437
1.432
1.442
1.466
1.496
1.496
1.505
1.544
1.579
1.598
1.613
1.632
1.662
1.662
1.647
1.657
1.667
1.657
1.647
1.647
1.667
1.672
1.652
1.662
1.681
1.686
1.681
1.672
1.681
1.691
1.667
1.657
1.676
1.691
1.691
1.686
1.691
1.711
1.701
1.681
1.696
1.711
1.711
1.706
1.706
1.725
1.73
1.711
1.716
1.73
1.735
1.725
1.716
1.725
1.74
1.725
1.72
1.74
1.755
1.75
1.745
1.75
1.769
1.764
1.75
1.764
1.789
1.794
1.794
1.799
1.818
1.823
1.799
1.799
1.823
1.833
1.828
1.828
1.848
1.862
1.848
1.843
1.857
1.872
1.867
1.862
1.872
1.891
1.887
1.872
1.887
1.906
1.901
1.891
1.882
1.891
1.887
1.852
1.848
1.862
1.862
1.857
1.848
1.857
1.862
1.838
1.818
1.823
1.823
1.804
1.774
1.764
1.764
1.745
1.716
1.716
1.725
1.716
1.696
1.681
1.681
1.672
1.632
1.623
1.637
1.637
1.628
1.618
1.628
1.632
1.603
1.588
1.603
1.608
1.598
1.588
1.598
1.618
1.613
1.588
1.598
1.618
1.613
1.603
1.598
1.613
1.618
1.593
1.598
1.618
1.623
1.613
1.608
1.618
1.628
1.608
1.598
1.618
1.628
1.623
1.618
1.628
1.647
1.637
1.623
1.637
1.652
1.647
1.637
1.632
1.647
1.642
1.618
1.618
1.637
1.637
1.628
1.618
1.632
1.647
1.628
1.628
1.647
1.662
1.652
1.642
1.642
1.647
1.632
1.608
1.618
1.632
1.632
1.628
1.632
1.652
1.657
1.632
1.632
1.647
1.647
1.637
1.632
1.647
1.657
1.637
1.628
1.642
1.652
1.642
1.637
1.642
1.657
1.652
1.637
1.657
1.681
1.686
1.686
1.696
1.716
1.72
1.696
1.696
1.711
1.711
1.696
1.686
1.691
1.696
1.672
1.662
1.672
1.676
1.662
1.647
1.652
1.662
1.647
1.623
1.632
1.642
1.632
1.618
1.608
1.623
1.623
1.598
1.603
1.618
1.628
1.623
1.618
1.632
1.642
1.618
1.608
1.623
1.628
1.618
1.608
1.608
1.618
1.608
1.584
1.598
1.608
1.608
1.593
1.584
1.588
1.579
1.54
1.535
1.554
1.569
1.593
1.642
1.73
1.833
1.916
2.014
2.131
2.229
2.283
2.302
2.302
2.283
2.204
2.097
1.999
1.901
1.784
1.672
1.584
1.53
1.481
1.427
1.422
1.437
1.447
1.452
1.466
1.505
1.549
1.554
1.569
1.613
1.647
1.652
1.652
1.657
1.667
1.647
1.623
1.628
1.642
1.637
1.637
1.642
1.672
1.676
1.657
1.662
1.676
1.676
1.667
1.657
1.667
1.672
1.652
1.647
1.672
1.686
1.686
1.681
1.686
1.701
1.686
1.667
1.681
1.696
1.691
1.686
1.691
1.711
1.716
1.696
1.701
1.716
1.72
1.716
1.711
1.725
1.74
1.725
1.725
1.75
1.764
1.76
1.75
1.76
1.774
1.764
1.75
1.764
1.789
1.789
1.789
1.794
1.813
1.813
1.794
1.804
1.828
1.833
1.833
1.833
1.857
1.877
1.862
1.852
1.872
1.877
1.867
1.857
1.862
1.882
1.872
1.862
1.882
1.901
1.901
1.887
1.882
1.891
1.882
1.848
1.843
1.852
1.848
1.838
1.828
1.833
1.838
1.804
1.789
1.789
1.784
1.76
1.735
1.725
1.725
1.701
1.676
1.681
1.686
1.676
1.662
1.652
1.657
1.647
1.613
1.613
1.628
1.628
1.618
1.618
1.628
1.637
1.613
1.608
1.628
1.637
1.628
1.618
1.623
1.632
1.618
1.598
1.603
1.613
1.608
1.598
1.598
1.618
1.618
1.598
1.603
1.623
1.628
1.623
1.623
1.637
1.647
1.628
1.623
1.637
1.642
1.632
1.618
1.623
1.642
1.628
1.613
1.623
1.637
1.632
1.623
1.618
1.628
1.628
1.608
1.613
1.632
1.628
1.623
1.623
1.637
1.652
1.632
1.628
1.647
1.662
1.657
1.647
1.652
1.657
1.637
1.608
1.618
1.632
1.628
1.618
1.623
1.642
1.647
1.628
1.637
1.657
1.662
1.652
1.647
1.657
1.657
1.637
1.628
1.647
1.657
1.652
1.642
1.647
1.662
1.652
1.637
1.652
1.672
1.676
1.681
1.686
1.711
1.716
1.691
1.701
1.716
1.711
1.696
1.686
1.696
1.696
1.667
1.652
1.662
1.662
1.647
1.632
1.632
1.642
1.628
1.608
1.618
1.632
1.623
1.613
1.613
1.628
1.623
1.598
1.598
1.613
1.608
1.598
1.593
1.608
1.623
1.603
1.598
1.613
1.623
1.618
1.608
1.608
1.618
1.603
1.584
1.598
1.608
1.598
1.584
1.569
1.569
1.559
1.525
1.53
1.569
1.613
1.667
1.745
1.852
1.965
2.053
2.141
2.239
2.302
2.326
2.307
2.278
2.224
2.116
1.994
1.891
1.789
1.681
1.584
1.51
1.476
1.442
1.403
1.408
1.437
1.457
1.471
1.496
1.535
1.574
1.574
1.588
1.628
1.642
1.642
1.642
1.647
1.657
1.647
1.632
1.647
1.667
1.667
1.662
1.667
1.686
1.681
1.662
1.667
1.686
1.686
1.672
1.662
1.672
1.672
1.647
1.642
1.662
1.672
1.667
1.667
1.676
1.696
1.686
1.672
1.686
1.706
1.706
1.701
1.706
1.72
1.72
1.701
1.706
1.725
1.725
1.716
1.711
1.725
1.735
1.72
1.716
1.735
1.745
1.74
1.735
1.75
1.774
1.764
1.75
1.769
1.794
1.794
1.789
1.794
1.813
1.813
1.789
1.799
1.818
1.823
1.823
1.828
1.848
1.862
1.848
1.848
1.867
1.877
1.872
1.862
1.872
1.887
1.872
1.857
1.867
1.877
1.872
1.852
1.848
1.852
1.843
1.813
1.813
1.823
1.823
1.808
1.804
1.813
1.818
1.789
1.774
1.774
1.76
1.73
1.696
1.686
1.681
1.662
1.642
1.652
1.662
1.652
1.637
1.632
1.647
1.642
1.613
1.613
1.628
1.628
1.618
1.608
1.618
1.618
1.593
1.579
1.593
1.598
1.593
1.588
1.598
1.618
1.603
1.588
1.598
1.618
1.618
1.613
1.613
1.632
1.628
1.603
1.608
1.628
1.628
1.618
1.618
1.632
1.637
1.618
1.613
1.632
1.642
1.642
1.632
1.642
1.652
1.632
1.613
1.628
1.642
1.642
1.632
1.637
1.652
1.652
1.628
1.632
1.647
1.642
1.623
1.618
1.628
1.642
1.623
1.623
1.642
1.647
1.637
1.628
1.632
1.642
1.623
1.608
1.623
1.642
1.642
1.642
1.647
1.667
1.667
1.642
1.647
1.662
1.662
1.652
1.647
1.667
1.676
1.652
1.652
1.672
1.681
1.676
1.672
1.686
1.706
1.696
1.691
1.711
1.725
1.725
1.711
1.711
1.72
1.706
1.676
1.672
1.681
1.676
1.657
1.642
1.647
1.647
1.623
1.613
1.632
1.637
1.628
1.618
1.623
1.637
1.623
1.603
1.618
1.628
1.628
1.623
1.623
1.642
1.637
1.613
1.618
1.632
1.632
1.623
1.623
1.637
1.652
1.628
1.623
1.637
1.637
1.623
1.603
1.598
1.598
1.569
1.535
1.535
1.535
1.52
1.52
1.549
1.613
1.686
1.76
1.877
2.009
2.121
2.209
2.278
2.331
2.346
2.307
2.248
2.185
2.092
1.975
1.857
1.76
1.676
1.579
1.5
1.466
1.457
1.442
1.437
1.452
1.481
1.496
1.496
1.525
1.564
1.588
1.603
1.618
1.647
1.662
1.642
1.637
1.652
1.657
1.647
1.632
1.642
1.662
1.652
1.637
1.657
1.672
1.672
1.662
1.657
1.672
1.672
1.652
1.662
1.686
1.691
1.681
1.676
1.691
1.696
1.672
1.672
1.691
1.696
1.691
1.686
1.701
1.72
1.711
1.696
1.711
1.725
1.716
1.706
1.706
1.72
1.711
1.691
1.696
1.72
1.725
1.725
1.73
1.75
1.764
1.745
1.75
1.769
1.784
1.784
1.779
1.789
1.804
1.794
1.784
1.799
1.818
1.823
1.818
1.828
1.852
1.857
1.833
1.843
1.857
1.857
1.848
1.843
1.857
1.867
1.848
1.852
1.872
1.882
1.877
1.867
1.867
1.877
1.852
1.823
1.828
1.838
1.823
1.808
1.804
1.813
1.804
1.774
1.769
1.779
1.764
1.745
1.73
1.735
1.73
1.696
1.681
1.691
1.691
1.681
1.667
1.672
1.681
1.657
1.632
1.637
1.642
1.632
1.613
1.608
1.618
1.613
1.584
1.593
1.608
1.603
1.588
1.584
1.598
1.603
1.584
1.584
1.603
1.618
1.608
1.603
1.613
1.628
1.613
1.598
1.618
1.632
1.628
1.618
1.618
1.632
1.628
1.603
1.608
1.623
1.623
1.618
1.613
1.628
1.637
1.613
1.613
1.632
1.637
1.628
1.618
1.623
1.632
1.618
1.598
1.613
1.628
1.623
1.613
1.618
1.637
1.637
1.613
1.623
1.637
1.637
1.628
1.623
1.637
1.637
1.608
1.603
1.623
1.628
1.618
1.613
1.623
1.642
1.628
1.618
1.632
1.642
1.642
1.637
1.642
1.657
1.652
1.628
1.637
1.652
1.657
1.647
1.642
1.657
1.662
1.642
1.647
1.676
1.691
1.691
1.691
1.706
1.725
1.711
1.696
1.706
1.716
1.706
1.691
1.686
1.696
1.681
1.657
1.662
1.672
1.672
1.657
1.647
1.657
1.657
1.623
1.618
1.628
1.628
1.618
1.613
1.618
1.637
1.623
1.608
1.618
1.628
1.623
1.608
1.608
1.618
1.618
1.598
1.608
1.628
1.632
1.623
1.618
1.628
1.632
1.603
1.593
1.603
1.603
1.588
1.569
1.564
1.564
1.535
1.52
1.544
1.588
1.642
1.711
1.808
1.935
2.038
2.116
2.214
2.297
2.331
2.322
2.287
2.239
2.165
2.043
1.931
1.838
1.735
1.632
1.549
1.505
1.476
1.442
1.417
1.437
1.461
1.476
1.496
1.525
1.564
1.584
1.588
1.613
1.647
1.657
1.657
1.652
1.667
1.662
1.632
1.628
1.642
1.657
1.657
1.652
1.667
1.686
1.676
1.667
1.686
1.701
1.691
1.676
1.672
1.681
1.672
1.647
1.657
1.676
1.686
1.686
1.691
1.711
1.72
1.696
1.691
1.706
1.711
1.701
1.691
1.701
1.72
1.706
1.701
1.716
1.73
1.73
1.72
1.73
1.75
1.755
1.73
1.74
1.755
1.76
1.75
1.755
1.774
1.789
1.774
1.774
1.799
1.804
1.799
1.789
1.799
1.808
1.799
1.789
1.813
1.833
1.838
1.833
1.843
1.857
1.857
1.838
1.852
1.867
1.867
1.862
1.862
1.877
1.882
1.857
1.852
1.872
1.882
1.882
1.872
1.877
1.887
1.857
1.833
1.833
1.828
1.813
1.789
1.779
1.784
1.774
1.745
1.75
1.764
1.75
1.725
1.706
1.706
1.696
1.662
1.647
1.657
1.652
1.642
1.632
1.637
1.647
1.628
1.613
1.623
1.632
1.623
1.613
1.613
1.628
1.623
1.603
1.613
1.628
1.623
1.613
1.608
1.623
1.632
1.613
1.613
1.628
1.637
1.632
1.628
1.637
1.647
1.628
1.608
1.623
1.632
1.628
1.623
1.628
1.642
1.637
1.613
1.623
1.642
1.637
1.628
1.623
1.637
1.642
1.618
1.618
1.632
1.632
1.628
1.623
1.632
1.647
1.632
1.623
1.637
1.652
1.647
1.632
1.632
1.647
1.642
1.618
1.628
1.647
1.652
1.647
1.642
1.657
1.667
1.642
1.647
1.672
1.676
1.667
1.657
1.662
1.672
1.647
1.632
1.647
1.662
1.662
1.657
1.662
1.681
1.676
1.657
1.667
1.686
1.691
1.691
1.701
1.725
1.735
1.716
1.711
1.73
1.73
1.716
1.701
1.701
1.711
1.686
1.662
1.672
1.676
1.667
1.652
1.647
1.652
1.642
1.618
1.623
1.642
1.637
1.623
1.618
1.637
1.642
1.623
1.623
1.642
1.652
1.647
1.632
1.637
1.647
1.623
1.598
1.608
1.618
1.613
1.603
1.608
1.632
1.632
1.618
1.623
1.632
1.623
1.603
1.584
1.579
1.564
1.53
1.52
1.535
1.559
1.593
1.647
1.745
1.857
1.945
2.043
2.155
2.253
2.307
2.326
2.322
2.297
2.224
2.111
2.014
1.916
1.808
1.691
1.598
1.54
1.491
1.437
1.422
1.442
1.461
1.476
1.5
1.535
1.574
1.584
1.588
1.618
1.642
1.642
1.637
1.642
1.657
1.652
1.628
1.637
1.657
1.657
1.652
1.657
1.676
1.681
1.662
1.667
1.691
1.696
1.691
1.681
1.686
1.696
1.681
1.672
1.686
1.701
1.701
1.691
1.696
1.716
1.711
1.691
1.701
1.72
1.716
1.701
1.701
1.716
1.72
1.696
1.696
1.716
1.72
1.716
1.716
1.735
1.75
1.74
1.73
1.75
1.764
1.764
1.755
1.76
1.779
1.774
1.76
1.774
1.799
1.808
1.808
1.813
1.838
1.852
1.833
1.833
1.848
1.848
1.843
1.833
1.843
1.857
1.843
1.838
1.857
1.877
1.872
1.867
1.872
1.882
1.877
1.852
1.857
1.877
1.877
1.867
1.862
1.877
1.872
1.843
1.838
1.848
1.843
1.828
1.813
1.813
1.813
1.784
1.76
1.76
1.76
1.74
1.72
1.711
1.716
1.701
1.672
1.676
1.686
1.676
1.662
1.647
1.657
1.647
1.613
1.608
1.623
1.628
1.618
1.608
1.618
1.628
1.608
1.598
1.608
1.618
1.613
1.603
1.603
1.618
1.613
1.593
1.603
1.623
1.628
1.618
1.623
1.632
1.637
1.618
1.618
1.637
1.642
1.637
1.632
1.642
1.652
1.637
1.628
1.642
1.657
1.657
1.647
1.647
1.657
1.647
1.618
1.623
1.637
1.632
1.623
1.623
1.642
1.647
1.623
1.628
1.647
1.647
1.637
1.628
1.637
1.647
1.632
1.623
1.637
1.647
1.642
1.632
1.632
1.657
1.647
1.628
1.642
1.662
1.662
1.652
1.652
1.667
1.672
1.647
1.647
1.667
1.672
1.667
1.667
1.681
1.696
1.681
1.672
1.696
1.706
1.706
1.696
1.701
1.72
1.711
1.691
1.696
1.711
1.701
1.691
1.681
1.696
1.696
1.667
1.662
1.672
1.672
1.657
1.647
1.652
1.657
1.628
1.613
1.628
1.632
1.628
1.613
1.618
1.637
1.632
1.613
1.628
1.642
1.642
1.637
1.632
1.647
1.642
1.613
1.613
1.628
1.628
1.618
1.613
1.618
1.628
1.603
1.584
1.588
1.588
1.564
1.54
1.525
1.53
1.525
1.515
1.559
1.623
1.691
1.769
1.867
1.994
2.102
2.175
2.248
2.317
2.336
2.307
2.248
2.185
2.102
1.97
1.843
1.75
1.657
1.574
1.5
1.466
1.457
1.437
1.417
1.437
1.476
1.5
1.52
1.549
1.588
1.618
1.613
1.628
1.652
1.662
1.657
1.647
1.657
1.662
1.642
1.632
1.652
1.667
1.667
1.662
1.662
1.676
1.667
1.642
1.652
1.672
1.667
1.662
1.667
1.691
1.701
1.681
1.681
1.696
1.701
1.691
1.686
1.696
1.716
1.701
1.691
1.711
1.72
1.72
1.711
1.716
1.73
1.72
1.701
1.711
1.725
1.725
1.716
1.711
1.725
1.73
1.716
1.72
1.75
1.76
1.76
1.76
1.774
1.789
1.779
1.769
1.789
1.804
1.804
1.799
1.813
1.833
1.833
1.813
1.833
1.852
1.862
1.862
1.862
1.877
1.882
1.852
1.852
1.867
1.867
1.857
1.848
1.857
1.867
1.848
1.833
1.848
1.857
1.852
1.838
1.838
1.848
1.828
1.804
1.808
1.818
1.804
1.784
1.764
1.769
1.764
1.735
1.725
1.74
1.735
1.72
1.706
1.701
1.701
1.672
1.647
1.657
1.667
1.657
1.642
1.642
1.652
1.642
1.613
1.613
1.623
1.613
1.603
1.603
1.623
1.628
1.603
1.603
1.618
1.623
1.608
1.598
1.608
1.613
1.598
1.588
1.613
1.623
1.623
1.618
1.623
1.637
1.628
1.608
1.613
1.628
1.623
1.618
1.618
1.632
1.637
1.613
1.618
1.642
1.647
1.637
1.628
1.637
1.647
1.628
1.618
1.632
1.637
1.632
1.618
1.623
1.632
1.628
1.608
1.618
1.637
1.642
1.637
1.637
1.652
1.652
1.623
1.618
1.628
1.623
1.608
1.598
1.608
1.623
1.603
1.593
1.613
1.623
1.623
1.613
1.618
1.632
1.632
1.613
1.628
1.647
1.652
1.642
1.642
1.657
1.662
1.637
1.637
1.652
1.657
1.647
1.642
1.652
1.667
1.657
1.647
1.672
1.686
1.691
1.686
1.701
1.72
1.716
1.696
1.706
1.725
1.716
1.701
1.686
1.691
1.681
1.642
1.637
1.642
1.637
1.628
1.618
1.628
1.632
1.613
1.598
1.613
1.618
1.613
1.603
1.608
1.623
1.618
1.593
1.608
1.623
1.618
1.603
1.603
1.618
1.623
1.598
1.598
1.613
1.618
1.613
1.608
1.618
1.628
1.608
1.593
1.603
1.603
1.588
1.559
1.544
1.544
1.525
1.51
1.535
1.579
1.628
1.696
1.789
1.906
2.019
2.097
2.19
2.273
2.312
2.302
2.263
2.209
2.131
2.004
1.882
1.779
1.686
1.588
1.505
1.452
1.432
1.403
1.383
1.408
1.437
1.461
1.486
1.515
1.559
1.584
1.579
1.593
1.628
1.642
1.647
1.647
1.662
1.672
1.652
1.642
1.657
1.662
1.657
1.647
1.657
1.676
1.672
1.652
1.672
1.691
1.691
1.686
1.676
1.691
1.691
1.662
1.662
1.676
1.681
1.681
1.676
1.691
1.711
1.696
1.691
1.706
1.72
1.711
1.706
1.706
1.725
1.716
1.696
1.706
1.725
1.725
1.716
1.716
1.73
1.735
1.716
1.725
1.755
1.764
1.764
1.764
1.779
1.794
1.774
1.76
1.774
1.789
1.789
1.784
1.799
1.818
1.818
1.808
1.828
1.848
1.852
1.843
1.843
1.857
1.857
1.833
1.833
1.852
1.862
1.857
1.857
1.872
1.882
1.862
1.852
1.867
1.877
1.862
1.843
1.843
1.852
1.838
1.813
1.813
1.823
1.808
1.789
1.779
1.789
1.784
1.75
1.735
1.74
1.73
1.711
1.691
1.691
1.696
1.667
1.652
1.657
1.657
1.642
1.628
1.628
1.637
1.623
1.598
1.608
1.628
1.628
1.618
1.613
1.623
1.618
1.588
1.588
1.608
1.608
1.598
1.593
1.603
1.618
1.603
1.593
1.608
1.618
1.613
1.603
1.613
1.628
1.618
1.598
1.613
1.628
1.632
1.623
1.623
1.642
1.642
1.623
1.623
1.637
1.642
1.632
1.623
1.628
1.637
1.613
1.608
1.628
1.637
1.632
1.618
1.618
1.632
1.618
1.598
1.613
1.637
1.637
1.637
1.637
1.652
1.652
1.628
1.628
1.642
1.647
1.637
1.628
1.637
1.647
1.623
1.608
1.628
1.642
1.642
1.637
1.647
1.667
1.667
1.652
1.667
1.686
1.681
1.672
1.667
1.681
1.686
1.662
1.667
1.681
1.681
1.672
1.662
1.676
1.681
1.652
1.637
1.647
1.652
1.642
1.628
1.632
1.647
1.637
1.613
1.618
1.628
1.623
1.613
1.613
1.628
1.632
1.603
1.603
1.623
1.623
1.618
1.613
1.628
1.632
1.613
1.603
1.618
1.623
1.623
1.608
1.613
1.623
1.613
1.593
1.598
1.608
1.598
1.574
1.559
1.559
1.549
1.515
1.515
1.544
1.574
1.613
1.667
1.76
1.862
1.931
2.009
2.097
2.16
2.18
2.165
2.136
2.087
1.999
1.882
1.794
1.711
1.618
1.54
1.481
1.457
1.432
1.403
1.408
1.442
1.461
1.471
1.486
1.52
1.549
1.549
1.564
1.593
1.623
1.632
1.642
1.657
1.681
1.676
1.652
1.662
1.667
1.662
1.647
1.642
1.657
1.662
1.642
1.652
1.676
1.686
1.676
1.672
1.681
1.696
1.672
1.667
1.691
1.701
1.696
1.691
1.696
1.711
1.701
1.686
1.696
1.716
1.72
1.711
1.711
1.725
1.725
1.701
1.701
1.72
1.72
1.716
1.716
1.73
1.745
1.73
1.725
1.74
1.75
1.745
1.74
1.745
1.764
1.76
1.75
1.769
1.794
1.794
1.789
1.794
1.818
1.823
1.804
1.804
1.823
1.833
1.828
1.828
1.848
1.862
1.843
1.833
1.857
1.862
1.862
1.857
1.862
1.877
1.862
1.838
1.848
1.857
1.848
1.833
1.833
1.843
1.843
1.813
1.808
1.818
1.813
1.794
1.779
1.779
1.774
1.745
1.725
1.735
1.735
1.72
1.701
1.691
1.691
1.672
1.637
1.642
1.652
1.642
1.628
1.623
1.637
1.632
1.608
1.608
1.628
1.632
1.623
1.618
1.628
1.632
1.608
1.593
1.598
1.603
1.588
1.574
1.579
1.593
1.588
1.574
1.593
1.613
1.613
1.608
1.603
1.623
1.628
1.603
1.608
1.623
1.623
1.608
1.603
1.613
1.623
1.598
1.593
1.613
1.623
1.618
1.613
1.618
1.632
1.623
1.603
1.618
1.632
1.632
1.628
1.628
1.647
1.647
1.623
1.623
1.637
1.637
1.628
1.618
1.628
1.637
1.623
1.613
1.632
1.642
1.637
1.632
1.637
1.652
1.637
1.623
1.637
1.657
1.657
1.647
1.647
1.662
1.667
1.642
1.652
1.672
1.681
1.676
1.672
1.681
1.691
1.667
1.662
1.676
1.686
1.676
1.672
1.676
1.691
1.667
1.637
1.637
1.642
1.628
1.608
1.603
1.618
1.618
1.593
1.603
1.623
1.628
1.618
1.613
1.618
1.623
1.603
1.593
1.613
1.623
1.618
1.608
1.613
1.628
1.618
1.598
1.613
1.632
1.628
1.618
1.613
1.623
1.613
1.574
1.564
1.569
1.559
1.544
1.535
1.554
1.579
1.593
1.642
1.73
1.828
1.911
1.989
2.067
2.141
2.165
2.151
2.141
2.102
2.028
1.931
1.838
1.764
1.681
1.584
1.53
1.5
1.471
1.452
1.442
1.457
1.476
1.471
1.486
1.52
1.554
1.569
1.584
1.608
1.642
1.647
1.637
1.652
1.667
1.662
1.652
1.647
1.662
1.657
1.632
1.637
1.657
1.667
1.657
1.652
1.667
1.676
1.657
1.652
1.672
1.686
1.686
1.676
1.681
1.696
1.681
1.662
1.672
1.686
1.681
1.672
1.672
1.691
1.691
1.667
1.672
1.691
1.696
1.686
1.681
1.696
1.711
1.696
1.691
1.706
1.72
1.725
1.725
1.74
1.76
1.75
1.73
1.745
1.764
1.764
1.76
1.76
1.774
1.779
1.76
1.769
1.794
1.804
1.799
1.799
1.818
1.833
1.818
1.813
1.838
1.848
1.843
1.838
1.843
1.862
1.848
1.833
1.848
1.867
1.867
1.862
1.862
1.872
1.867
1.828
1.818
1.823
1.818
1.799
1.784
1.789
1.794
1.764
1.75
1.755
1.755
1.74
1.716
1.711
1.716
1.691
1.667
1.672
1.681
1.667
1.652
1.642
1.652
1.647
1.618
1.623
1.637
1.637
1.628
1.618
1.623
1.623
1.598
1.584
1.593
1.603
1.593
1.588
1.598
1.623
1.613
1.598
1.608
1.623
1.618
1.608
1.603
1.618
1.618
1.593
1.598
1.613
1.618
1.603
1.593
1.603
1.613
1.598
1.593
1.618
1.632
1.628
1.623
1.632
1.647
1.637
1.618
1.628
1.642
1.632
1.623
1.618
1.637
1.637
1.608
1.608
1.628
1.632
1.623
1.618
1.628
1.642
1.623
1.623
1.642
1.652
1.652
1.637
1.642
1.652
1.637
1.618
1.628
1.647
1.647
1.642
1.642
1.662
1.662
1.642
1.642
1.667
1.676
1.676
1.681
1.696
1.706
1.686
1.672
1.681
1.686
1.672
1.662
1.662
1.681
1.667
1.642
1.647
1.652
1.642
1.623
1.618
1.628
1.628
1.608
1.613
1.628
1.628
1.618
1.603
1.608
1.613
1.593
1.588
1.608
1.628
1.628
1.618
1.628
1.637
1.623
1.598
1.603
1.613
1.608
1.598
1.598
1.613
1.613
1.584
1.574
1.579
1.564
1.54
1.52
1.53
1.544
1.54
1.569
1.647
1.735
1.818
1.901
1.999
2.097
2.155
2.185
2.214
2.219
2.18
2.116
2.038
1.965
1.867
1.745
1.662
1.603
1.549
1.5
1.466
1.466
1.476
1.466
1.476
1.51
1.54
1.554
1.564
1.584
1.613
1.613
1.608
1.632
1.652
1.652
1.642
1.637
1.652
1.642
1.613
1.618
1.632
1.637
1.637
1.637
1.657
1.672
1.652
1.652
1.667
1.681
1.676
1.672
1.681
1.696
1.686
1.667
1.681
1.691
1.686
1.672
1.672
1.686
1.681
1.662
1.667
1.686
1.691
1.686
1.686
1.701
1.716
1.696
1.691
1.711
1.72
1.716
1.706
1.716
1.73
1.725
1.716
1.74
1.76
1.76
1.755
1.76
1.774
1.774
1.75
1.76
1.779
1.794
1.794
1.794
1.813
1.823
1.808
1.804
1.818
1.828
1.828
1.823
1.828
1.843
1.833
1.818
1.828
1.848
1.843
1.833
1.833
1.852
1.852
1.828
1.823
1.833
1.828
1.813
1.799
1.799
1.799
1.769
1.75
1.755
1.755
1.745
1.73
1.73
1.735
1.711
1.681
1.681
1.681
1.667
1.642
1.632
1.642
1.642
1.618
1.618
1.637
1.637
1.623
1.603
1.608
1.613
1.588
1.579
1.598
1.608
1.603
1.598
1.608
1.628
1.613
1.593
1.598
1.613
1.608
1.603
1.603
1.618
1.618
1.593
1.603
1.623
1.623
1.618
1.608
1.613
1.623
1.598
1.593
1.613
1.623
1.623
1.613
1.618
1.632
1.618
1.603
1.618
1.637
1.637
1.632
1.632
1.647
1.647
1.618
1.618
1.628
1.628
1.618
1.608
1.623
1.632
1.613
1.608
1.628
1.637
1.637
1.632
1.642
1.657
1.647
1.628
1.632
1.642
1.637
1.623
1.623
1.637
1.642
1.623
1.632
1.657
1.662
1.662
1.662
1.681
1.696
1.681
1.681
1.701
1.711
1.706
1.686
1.686
1.691
1.672
1.652
1.657
1.672
1.667
1.657
1.652
1.667
1.662
1.632
1.632
1.647
1.647
1.637
1.623
1.632
1.632
1.613
1.603
1.618
1.628
1.623
1.618
1.632
1.647
1.637
1.618
1.623
1.637
1.628
1.618
1.613
1.628
1.623
1.598
1.603
1.623
1.623
1.613
1.598
1.603
1.598
1.564
1.54
1.54
1.535
1.525
1.535
1.569
1.637
1.701
1.774
1.887
1.999
2.092
2.165
2.219
2.258
2.253
2.199
2.146
2.087
1.994
1.887
1.779
1.696
1.628
1.549
1.5
1.491
1.486
1.481
1.481
1.505
1.544
1.559
1.564
1.598
1.637
1.647
1.647
1.652
1.662
1.657
1.628
1.623
1.637
1.637
1.632
1.637
1.652
1.667
1.647
1.642
1.657
1.662
1.652
1.642
1.647
1.667
1.662
1.647
1.667
1.686
1.686
1.681
1.681
1.696
1.696
1.676
1.681
1.701
1.701
1.691
1.681
1.696
1.706
1.686
1.676
1.701
1.716
1.716
1.716
1.73
1.745
1.74
1.72
1.73
1.745
1.74
1.73
1.73
1.745
1.75
1.73
1.74
1.769
1.779
1.779
1.779
1.794
1.808
1.794
1.794
1.813
1.828
1.828
1.823
1.833
1.848
1.843
1.823
1.833
1.848
1.848
1.838
1.838
1.857
1.857
1.843
1.852
1.872
1.872
1.862
1.848
1.848
1.848
1.813
1.799
1.808
1.808
1.804
1.784
1.784
1.794
1.769
1.74
1.74
1.74
1.72
1.701
1.691
1.696
1.686
1.657
1.652
1.662
1.657
1.647
1.637
1.647
1.652
1.623
1.613
1.623
1.628
1.623
1.613
1.618
1.632
1.618
1.598
1.613
1.623
1.618
1.603
1.603
1.613
1.618
1.598
1.603
1.623
1.628
1.618
1.613
1.628
1.637
1.623
1.618
1.637
1.642
1.637
1.628
1.632
1.647
1.632
1.608
1.618
1.628
1.632
1.623
1.623
1.642
1.642
1.623
1.628
1.647
1.652
1.642
1.637
1.647
1.652
1.628
1.613
1.632
1.642
1.637
1.632
1.637
1.657
1.642
1.628
1.637
1.652
1.647
1.637
1.637
1.657
1.657
1.632
1.637
1.657
1.657
1.652
1.647
1.662
1.676
1.657
1.647
1.667
1.672
1.667
1.662
1.672
1.691
1.681
1.672
1.691
1.711
1.711
1.701
1.701
1.711
1.706
1.672
1.672
1.681
1.672
1.657
1.637
1.642
1.642
1.618
1.613
1.632
1.647
1.642
1.637
1.642
1.652
1.632
1.608
1.618
1.628
1.623
1.618
1.618
1.637
1.637
1.608
1.613
1.628
1.628
1.623
1.613
1.628
1.632
1.613
1.603
1.618
1.623
1.608
1.588
1.584
1.584
1.554
1.52
1.525
1.54
1.559
1.588
1.657
1.76
1.862
1.945
2.053
2.165
2.239
2.273
2.278
2.263
2.219
2.121
2.023
1.94
1.848
1.74
1.647
1.584
1.544
1.491
1.452
1.452
1.466
1.471
1.481
1.505
1.549
1.579
1.579
1.608
1.647
1.662
1.667
1.662
1.676
1.681
1.657
1.642
1.657
1.667
1.662
1.657
1.667
1.681
1.672
1.652
1.667
1.681
1.681
1.672
1.667
1.686
1.686
1.662
1.672
1.691
1.701
1.696
1.696
1.711
1.72
1.696
1.686
1.701
1.711
1.706
1.696
1.706
1.72
1.711
1.701
1.72
1.74
1.745
1.735
1.735
1.75
1.745
1.72
1.725
1.74
1.74
1.74
1.74
1.76
1.779
1.764
1.764
1.789
1.799
1.799
1.799
1.808
1.833
1.828
1.813
1.833
1.852
1.857
1.852
1.857
1.877
1.882
1.857
1.862
1.882
1.882
1.877
1.867
1.877
1.877
1.852
1.848
1.857
1.867
1.857
1.843
1.843
1.852
1.833
1.808
1.808
1.813
1.804
1.789
1.779
1.784
1.769
1.735
1.725
1.73
1.716
1.691
1.672
1.672
1.676
1.652
1.642
1.662
1.667
1.657
1.642
1.642
1.647
1.628
1.598
1.603
1.618
1.613
1.603
1.603
1.623
1.628
1.603
1.608
1.628
1.628
1.618
1.608
1.618
1.623
1.603
1.598
1.613
1.623
1.618
1.613
1.618
1.637
1.628
1.613
1.623
1.637
1.632
1.623
1.623
1.637
1.642
1.623
1.632
1.657
1.667
1.657
1.652
1.662
1.657
1.628
1.613
1.618
1.623
1.618
1.618
1.628
1.647
1.637
1.618
1.632
1.642
1.632
1.623
1.618
1.632
1.637
1.618
1.623
1.647
1.652
1.647
1.642
1.652
1.662
1.642
1.642
1.662
1.676
1.676
1.667
1.672
1.681
1.662
1.642
1.657
1.672
1.672
1.667
1.672
1.696
1.701
1.681
1.691
1.711
1.716
1.706
1.701
1.711
1.72
1.701
1.691
1.706
1.711
1.696
1.681
1.676
1.681
1.657
1.628
1.632
1.637
1.628
1.613
1.608
1.618
1.618
1.593
1.598
1.618
1.628
1.623
1.628
1.642
1.657
1.632
1.623
1.637
1.647
1.642
1.637
1.642
1.657
1.642
1.623
1.632
1.637
1.632
1.618
1.618
1.628
1.618
1.588
1.584
1.588
1.579
1.559
1.549
1.559
1.579
1.588
1.632
1.72
1.818
1.911
2.004
2.102
2.199
2.253
2.273
2.287
2.273
2.214
2.126
2.028
1.94
1.828
1.706
1.618
1.564
1.51
1.476
1.457
1.476
1.5
1.496
1.52
1.559
1.593
1.603
1.608
1.628
1.647
1.642
1.632
1.647
1.667
1.662
1.657
1.657
1.676
1.681
1.657
1.667
1.686
1.691
1.681
1.676
1.691
1.696
1.672
1.662
1.681
1.691
1.686
1.681
1.691
1.711
1.701
1.686
1.701
1.711
1.706
1.691
1.686
1.701
1.696
1.672
1.681
1.706
1.711
1.711
1.711
1.725
1.735
1.716
1.716
1.74
1.75
1.745
1.74
1.75
1.764
1.755
1.74
1.76
1.779
1.784
1.779
1.784
1.808
1.808
1.794
1.799
1.823
1.828
1.828
1.823
1.843
1.852
1.833
1.828
1.852
1.867
1.872
1.867
1.877
1.891
1.882
1.862
1.872
1.882
1.877
1.867
1.867
1.882
1.877
1.848
1.848
1.862
1.857
1.843
1.828
1.833
1.833
1.804
1.789
1.799
1.799
1.779
1.76
1.75
1.75
1.72
1.686
1.686
1.691
1.681
1.662
1.657
1.662
1.652
1.623
1.628
1.642
1.642
1.637
1.632
1.647
1.652
1.628
1.613
1.623
1.623
1.613
1.598
1.603
1.618
1.608
1.598
1.613
1.632
1.632
1.628
1.628
1.642
1.642
1.623
1.628
1.642
1.637
1.628
1.623
1.632
1.647
1.628
1.623
1.642
1.652
1.647
1.637
1.637
1.652
1.637
1.618
1.628
1.642
1.637
1.632
1.637
1.657
1.657
1.637
1.642
1.657
1.657
1.652
1.642
1.657
1.662
1.642
1.637
1.652
1.662
1.657
1.652
1.662
1.676
1.667
1.647
1.657
1.667
1.657
1.642
1.637
1.647
1.647
1.623
1.628
1.647
1.652
1.652
1.652
1.667
1.676
1.652
1.647
1.667
1.676
1.667
1.662
1.662
1.676
1.662
1.642
1.652
1.667
1.667
1.667
1.676
1.706
1.711
1.696
1.706
1.73
1.73
1.72
1.711
1.72
1.725
1.696
1.686
1.701
1.696
1.681
1.667
1.667
1.672
1.652
1.632
1.642
1.652
1.647
1.637
1.632
1.647
1.642
1.618
1.623
1.642
1.652
1.647
1.642
1.647
1.652
1.623
1.613
1.623
1.628
1.618
1.613
1.623
1.637
1.628
1.613
1.628
1.637
1.628
1.613
1.598
1.603
1.588
1.554
1.549
1.564
1.574
1.588
1.623
1.701
1.789
1.857
1.945
2.058
2.16
2.229
2.273
2.297
2.302
2.253
2.17
2.097
2.009
1.901
1.784
1.691
1.623
1.554
1.486
1.461
1.466
1.466
1.476
1.486
1.52
1.554
1.554
1.574
1.608
1.632
1.642
1.642
1.662
1.676
1.662
1.642
1.652
1.662
1.657
1.647
1.647
1.662
1.662
1.642
1.657
1.681
1.686
1.676
1.672
1.681
1.691
1.667
1.662
1.681
1.691
1.691
1.681
1.686
1.701
1.686
1.672
1.691
1.711
1.711
1.701
1.706
1.725
1.72
1.701
1.701
1.716
1.716
1.711
1.716
1.735
1.745
1.73
1.725
1.75
1.76
1.75
1.745
1.755
1.774
1.769
1.755
1.769
1.784
1.784
1.784
1.794
1.813
1.818
1.804
1.813
1.843
1.848
1.848
1.848
1.867
1.877
1.857
1.852
1.877
1.887
1.882
1.872
1.877
1.887
1.867
1.843
1.848
1.857
1.852
1.843
1.843
1.857
1.857
1.833
1.833
1.838
1.828
1.808
1.794
1.794
1.789
1.76
1.74
1.745
1.735
1.716
1.691
1.691
1.696
1.676
1.657
1.667
1.676
1.662
1.647
1.637
1.647
1.637
1.608
1.613
1.632
1.637
1.637
1.632
1.642
1.642
1.608
1.588
1.598
1.598
1.588
1.579
1.588
1.603
1.598
1.584
1.598
1.613
1.613
1.603
1.598
1.613
1.613
1.588
1.598
1.618
1.618
1.608
1.603
1.613
1.623
1.603
1.598
1.618
1.623
1.623
1.613
1.623
1.642
1.632
1.618
1.628
1.642
1.637
1.628
1.628
1.642
1.637
1.613
1.613
1.632
1.632
1.623
1.618
1.632
1.642
1.618
1.613
1.632
1.637
1.628
1.618
1.623
1.632
1.618
1.603
1.618
1.632
1.632
1.628
1.632
1.642
1.642
1.618
1.628
1.647
1.647
1.642
1.642
1.657
1.667
1.647
1.642
1.662
1.672
1.667
1.662
1.676
1.696
1.691
1.681
1.706
1.725
1.725
1.72
1.72
1.73
1.725
1.691
1.681
1.681
1.667
1.647
1.632
1.637
1.637
1.613
1.608
1.623
1.628
1.623
1.613
1.613
1.628
1.613
1.603
1.618
1.632
1.632
1.623
1.623
1.637
1.632
1.608
1.613
1.628
1.632
1.628
1.628
1.642
1.652
1.628
1.618
1.632
1.637
1.623
1.603
1.598
1.598
1.574
1.544
1.549
1.559
1.564
1.588
1.642
1.73
1.813
1.887
1.984
2.092
2.17
2.214
2.239
2.243
2.209
2.126
2.028
1.94
1.838
1.725
1.618
1.544
1.496
1.442
1.408
1.417
1.442
1.457
1.471
1.5
1.54
1.569
1.574
1.603
1.647
1.667
1.676
1.672
1.691
1.696
1.672
1.662
1.676
1.686
1.681
1.672
1.681
1.696
1.686
1.672
1.686
1.701
1.696
1.686
1.681
1.696
1.691
1.662
1.667
1.686
1.691
1.691
1.696
1.711
1.725
1.711
1.706
1.725
1.73
1.725
1.72
1.72
1.735
1.72
1.706
1.72
1.735
1.735
1.73
1.735
1.755
1.755
1.74
1.75
1.769
1.769
1.764
1.76
1.769
1.779
1.764
1.764
1.789
1.804
1.804
1.799
1.813
1.833
1.818
1.804
1.818
1.833
1.833
1.833
1.843
1.862
1.867
1.852
1.867
1.891
1.896
1.891
1.896
1.911
1.926
1.901
1.891
1.906
1.906
1.891
1.877
1.872
1.877
1.852
1.828
1.833
1.838
1.823
1.808
1.804
1.813
1.799
1.76
1.75
1.755
1.74
1.716
1.696
1.696
1.691
1.657
1.647
1.667
1.672
1.662
1.647
1.647
1.657
1.632
1.613
1.623
1.632
1.628
1.618
1.623
1.637
1.632
1.608
1.613
1.632
1.632
1.628
1.623
1.642
1.652
1.628
1.618
1.628
1.632
1.618
1.603
1.603
1.618
1.608
1.598
1.623
1.642
1.642
1.632
1.632
1.647
1.647
1.623
1.628
1.647
1.647
1.637
1.632
1.647
1.647
1.623
1.613
1.628
1.637
1.637
1.632
1.647
1.672
1.662
1.652
1.662
1.676
1.667
1.657
1.652
1.657
1.652
1.628
1.632
1.652
1.657
1.647
1.642
1.652
1.662
1.637
1.637
1.657
1.667
1.657
1.647
1.652
1.662
1.642
1.623
1.637
1.647
1.647
1.642
1.652
1.672
1.676
1.657
1.662
1.676
1.676
1.672
1.667
1.681
1.691
1.672
1.672
1.696
1.711
1.706
1.706
1.716
1.725
1.706
1.686
1.696
1.701
1.696
1.676
1.672
1.681
1.667
1.642
1.642
1.652
1.652
1.637
1.632
1.647
1.652
1.632
1.623
1.642
1.647
1.642
1.632
1.637
1.647
1.632
1.613
1.623
1.637
1.632
1.628
1.628
1.642
1.642
1.618
1.628
1.637
1.632
1.618
1.603
1.603
1.598
1.559
1.54
1.549
1.554
1.559
1.569
1.618
1.691
1.755
1.828
1.935
2.043
2.126
2.19
2.239
2.273
2.263
2.204
2.151
2.082
1.984
1.872
1.76
1.676
1.603
1.52
1.471
1.466
1.466
1.466
1.471
1.496
1.535
1.54
1.544
1.579
1.613
1.628
1.637
1.647
1.667
1.667
1.642
1.642
1.662
1.662
1.652
1.652
1.667
1.681
1.662
1.657
1.681
1.691
1.686
1.681
1.686
1.706
1.691
1.676
1.686
1.696
1.691
1.681
1.681
1.701
1.706
1.686
1.696
1.72
1.72
1.716
1.706
1.716
1.716
1.696
1.691
1.716
1.725
1.725
1.725
1.74
1.755
1.745
1.725
1.74
1.755
1.755
1.75
1.755
1.779
1.779
1.76
1.769
1.789
1.799
1.799
1.799
1.818
1.833
1.813
1.808
1.828
1.838
1.838
1.838
1.857
1.877
1.872
1.862
1.877
1.891
1.887
1.872
1.867
1.877
1.877
1.852
1.857
1.877
1.877
1.867
1.857
1.862
1.867
1.838
1.833
1.848
1.848
1.833
1.818
1.813
1.818
1.789
1.76
1.76
1.76
1.75
1.73
1.72
1.725
1.706
1.672
1.667
1.676
1.672
1.662
1.662
1.672
1.676
1.647
1.637
1.647
1.642
1.628
1.608
1.608
1.618
1.603
1.588
1.598
1.613
1.608
1.598
1.598
1.613
1.618
1.598
1.608
1.632
1.637
1.628
1.623
1.637
1.642
1.618
1.618
1.637
1.642
1.637
1.632
1.642
1.652
1.632
1.613
1.623
1.642
1.637
1.632
1.632
1.652
1.652
1.632
1.637
1.657
1.652
1.637
1.628
1.642
1.647
1.623
1.618
1.632
1.642
1.637
1.632
1.637
1.657
1.642
1.632
1.647
1.662
1.657
1.647
1.652
1.667
1.662
1.637
1.642
1.657
1.652
1.642
1.637
1.647
1.657
1.637
1.637
1.657
1.667
1.667
1.662
1.672
1.686
1.676
1.662
1.676
1.696
1.696
1.686
1.691
1.701
1.701
1.676
1.691
1.711
1.711
1.706
1.706
1.716
1.716
1.681
1.667
1.672
1.672
1.657
1.642
1.652
1.667
1.652
1.632
1.647
1.657
1.652
1.642
1.642
1.652
1.642
1.618
1.618
1.628
1.628
1.613
1.613
1.632
1.647
1.632
1.632
1.652
1.657
1.647
1.632
1.632
1.637
1.618
1.598
1.608
1.618
1.603
1.584
1.569
1.574
1.564
1.544
1.569
1.618
1.672
1.74
1.823
1.935
2.043
2.111
2.185
2.258
2.292
2.283
2.239
2.18
2.111
1.999
1.877
1.784
1.701
1.618
1.544
1.496
1.481
1.466
1.442
1.466
1.5
1.53
1.554
1.579
1.618
1.647
1.642
1.652
1.676
1.681
1.672
1.662
1.672
1.681
1.667
1.652
1.672
1.686
1.686
1.672
1.676
1.691
1.686
1.662
1.672
1.691
1.696
1.691
1.691
1.706
1.711
1.686
1.681
1.701
1.706
1.696
1.691
1.701
1.716
1.701
1.691
1.711
1.725
1.72
1.711
1.711
1.73
1.73
1.706
1.72
1.745
1.75
1.745
1.745
1.764
1.774
1.75
1.755
1.774
1.784
1.779
1.774
1.784
1.804
1.789
1.774
1.794
1.808
1.813
1.818
1.828
1.852
1.852
1.838
1.852
1.877
1.877
1.867
1.862
1.877
1.882
1.857
1.852
1.872
1.882
1.877
1.872
1.887
1.901
1.882
1.867
1.877
1.882
1.877
1.857
1.848
1.857
1.838
1.804
1.799
1.804
1.789
1.774
1.76
1.764
1.764
1.735
1.725
1.735
1.735
1.711
1.686
1.686
1.686
1.657
1.632
1.637
1.642
1.632
1.618
1.618
1.623
1.618
1.593
1.598
1.618
1.613
1.603
1.603
1.618
1.623
1.598
1.598
1.618
1.628
1.623
1.618
1.628
1.642
1.628
1.613
1.623
1.632
1.623
1.608
1.603
1.618
1.613
1.593
1.603
1.628
1.637
1.637
1.632
1.652
1.662
1.637
1.628
1.642
1.642
1.632
1.623
1.632
1.642
1.623
1.603
1.618
1.637
1.637
1.632
1.637
1.657
1.652
1.632
1.642
1.657
1.657
1.642
1.637
1.652
1.657
1.637
1.632
1.647
1.652
1.642
1.632
1.637
1.652
1.637
1.628
1.647
1.662
1.662
1.652
1.652
1.667
1.662
1.637
1.647
1.667
1.667
1.662
1.657
1.667
1.676
1.652
1.652
1.676
1.691
1.696
1.696
1.716
1.73
1.716
1.696
1.701
1.701
1.686
1.667
1.662
1.676
1.667
1.647
1.657
1.676
1.672
1.657
1.647
1.652
1.647
1.623
1.618
1.628
1.632
1.628
1.618
1.632
1.647
1.637
1.623
1.637
1.652
1.647
1.637
1.632
1.647
1.637
1.608
1.618
1.628
1.628
1.623
1.618
1.632
1.637
1.603
1.588
1.593
1.584
1.564
1.54
1.544
1.564
1.569
1.598
1.681
1.774
1.862
1.945
2.038
2.131
2.19
2.199
2.214
2.204
2.151
2.067
1.97
1.882
1.784
1.667
1.584
1.54
1.496
1.461
1.442
1.452
1.476
1.476
1.486
1.525
1.564
1.588
1.598
1.623
1.657
1.662
1.647
1.657
1.672
1.676
1.662
1.657
1.672
1.681
1.662
1.662
1.681
1.686
1.676
1.667
1.676
1.686
1.667
1.652
1.667
1.686
1.686
1.686
1.691
1.716
1.711
1.686
1.696
1.711
1.706
1.701
1.701
1.72
1.73
1.711
1.716
1.73
1.74
1.73
1.725
1.735
1.75
1.74
1.73
1.75
1.764
1.764
1.755
1.76
1.774
1.774
1.75
1.755
1.779
1.784
1.784
1.784
1.804
1.813
1.794
1.794
1.818
1.823
1.823
1.818
1.833
1.857
1.848
1.848
1.867
1.882
1.882
1.872
1.877
1.891
1.891
1.867
1.877
1.896
1.896
1.882
1.872
1.882
1.882
1.857
1.852
1.872
1.877
1.862
1.843
1.833
1.833
1.799
1.769
1.764
1.764
1.755
1.735
1.735
1.74
1.73
1.696
1.691
1.696
1.686
1.667
1.657
1.667
1.667
1.642
1.632
1.642
1.637
1.623
1.613
1.613
1.628
1.608
1.598
1.613
1.628
1.623
1.613
1.613
1.623
1.618
1.593
1.603
1.623
1.628
1.618
1.613
1.628
1.628
1.603
1.603
1.618
1.623
1.623
1.618
1.632
1.647
1.628
1.618
1.628
1.642
1.632
1.618
1.623
1.637
1.628
1.608
1.618
1.632
1.637
1.632
1.632
1.652
1.657
1.632
1.632
1.652
1.657
1.647
1.637
1.642
1.652
1.632
1.618
1.632
1.642
1.632
1.623
1.632
1.652
1.657
1.637
1.647
1.662
1.662
1.647
1.642
1.647
1.647
1.623
1.623
1.637
1.642
1.637
1.637
1.647
1.667
1.652
1.652
1.672
1.696
1.701
1.696
1.701
1.716
1.706
1.676
1.681
1.691
1.686
1.667
1.657
1.662
1.662
1.632
1.623
1.637
1.642
1.632
1.628
1.637
1.647
1.632
1.618
1.632
1.642
1.632
1.618
1.618
1.632
1.628
1.603
1.608
1.623
1.623
1.618
1.618
1.632
1.642
1.618
1.618
1.637
1.642
1.628
1.618
1.618
1.618
1.588
1.564
1.564
1.569
1.554
1.544
1.554
1.588
1.618
1.652
1.735
1.838
1.926
2.009
2.087
2.16
2.204
2.19
2.17
2.146
2.082
1.989
1.882
1.794
1.716
1.618
1.54
1.505
1.486
1.461
1.452
1.461
1.491
1.505
1.505
1.535
1.579
1.598
1.608
1.623
1.647
1.662
1.642
1.642
1.657
1.657
1.652
1.642
1.657
1.676
1.662
1.652
1.672
1.686
1.681
1.672
1.672
1.691
1.686
1.672
1.686
1.711
1.711
1.701
1.696
1.706
1.706
1.681
1.676
1.691
1.696
1.691
1.691
1.706
1.72
1.706
1.696
1.711
1.725
1.725
1.716
1.72
1.74
1.735
1.716
1.725
1.74
1.74
1.73
1.73
1.745
1.76
1.745
1.75
1.779
1.794
1.794
1.799
1.813
1.828
1.808
1.799
1.813
1.828
1.823
1.818
1.823
1.843
1.843
1.833
1.848
1.872
1.877
1.877
1.877
1.887
1.882
1.852
1.843
1.852
1.848
1.838
1.828
1.838
1.843
1.823
1.804
1.813
1.818
1.804
1.789
1.789
1.799
1.784
1.75
1.75
1.755
1.745
1.725
1.711
1.716
1.706
1.672
1.667
1.676
1.672
1.657
1.642
1.642
1.647
1.623
1.603
1.613
1.618
1.603
1.584
1.584
1.598
1.598
1.584
1.598
1.618
1.623
1.618
1.613
1.628
1.632
1.603
1.598
1.613
1.618
1.613
1.608
1.623
1.637
1.618
1.603
1.618
1.628
1.628
1.618
1.618
1.632
1.623
1.598
1.608
1.623
1.628
1.618
1.618
1.637
1.647
1.623
1.628
1.647
1.647
1.637
1.632
1.642
1.657
1.637
1.618
1.632
1.637
1.628
1.618
1.623
1.642
1.637
1.623
1.632
1.652
1.647
1.642
1.637
1.652
1.657
1.628
1.623
1.642
1.647
1.637
1.628
1.637
1.647
1.628
1.618
1.647
1.667
1.667
1.662
1.667
1.686
1.681
1.662
1.672
1.686
1.681
1.672
1.672
1.686
1.691
1.667
1.667
1.686
1.691
1.681
1.667
1.672
1.676
1.647
1.628
1.637
1.642
1.632
1.623
1.628
1.642
1.637
1.618
1.628
1.647
1.642
1.632
1.628
1.642
1.642
1.618
1.613
1.628
1.628
1.618
1.603
1.613
1.628
1.603
1.593
1.613
1.632
1.628
1.618
1.623
1.632
1.623
1.593
1.593
1.588
1.569
1.544
1.535
1.544
1.559
1.559
1.608
1.691
1.784
1.877
1.965
2.067
2.155
2.195
2.214
2.224
2.199
2.136
2.053
1.965
1.882
1.769
1.652
1.584
1.535
1.481
1.447
1.427
1.447
1.461
1.461
1.486
1.535
1.564
1.584
1.593
1.618
1.642
1.632
1.632
1.652
1.667
1.667
1.657
1.662
1.676
1.667
1.647
1.657
1.676
1.672
1.667
1.662
1.681
1.681
1.662
1.657
1.672
1.672
1.667
1.662
1.676
1.691
1.681
1.672
1.691
1.706
1.701
1.696
1.696
1.711
1.701
1.676
1.691
1.706
1.711
1.706
1.706
1.725
1.73
1.706
1.716
1.73
1.735
1.73
1.72
1.735
1.75
1.735
1.73
1.755
1.774
1.784
1.784
1.794
1.813
1.808
1.789
1.794
1.813
1.813
1.808
1.808
1.828
1.838
1.823
1.833
1.862
1.872
1.862
1.857
1.862
1.872
1.852
1.843
1.857
1.867
1.857
1.848
1.848
1.862
1.848
1.823
1.828
1.838
1.833
1.818
1.808
1.818
1.808
1.769
1.76
1.76
1.75
1.73
1.716
1.716
1.72
1.696
1.681
1.696
1.701
1.691
1.672
1.662
1.667
1.647
1.618
1.623
1.632
1.623
1.613
1.608
1.623
1.623
1.593
1.593
1.613
1.618
1.613
1.608
1.618
1.632
1.608
1.598
1.618
1.628
1.623
1.618
1.623
1.642
1.637
1.618
1.628
1.642
1.637
1.628
1.628
1.647
1.652
1.628
1.632
1.652
1.657
1.642
1.637
1.642
1.652
1.628
1.618
1.637
1.647
1.642
1.637
1.642
1.652
1.642
1.618
1.628
1.642
1.642
1.628
1.628
1.642
1.642
1.618
1.623
1.642
1.647
1.642
1.637
1.647
1.662
1.647
1.637
1.652
1.657
1.652
1.642
1.647
1.662
1.662
1.642
1.657
1.676
1.681
1.676
1.676
1.691
1.691
1.667
1.672
1.691
1.696
1.686
1.681
1.696
1.711
1.691
1.681
1.696
1.706
1.701
1.686
1.686
1.696
1.681
1.652
1.652
1.657
1.642
1.628
1.623
1.637
1.637
1.613
1.618
1.637
1.647
1.637
1.628
1.637
1.642
1.618
1.613
1.628
1.637
1.632
1.628
1.632
1.642
1.628
1.603
1.613
1.623
1.618
1.608
1.608
1.623
1.618
1.584
1.579
1.588
1.584
1.564
1.549
1.559
1.584
1.593
1.632
1.716
1.804
1.891
1.975
2.067
2.16
2.209
2.219
2.229
2.214
2.16
2.077
1.984
1.901
1.799
1.681
1.598
1.549
1.505
1.466
1.452
1.461
1.486
1.486
1.496
1.535
1.569
1.584
1.593
1.618
1.647
1.647
1.632
1.647
1.667
1.662
1.647
1.642
1.652
1.652
1.628
1.632
1.657
1.667
1.662
1.662
1.681
1.701
1.686
1.681
1.701
1.706
1.696
1.681
1.681
1.691
1.676
1.657
1.672
1.696
1.701
1.696
1.696
1.716
1.72
1.696
1.701
1.716
1.72
1.72
1.716
1.73
1.745
1.725
1.72
1.74
1.75
1.745
1.735
1.74
1.76
1.75
1.735
1.75
1.774
1.779
1.774
1.779
1.804
1.813
1.794
1.804
1.828
1.833
1.828
1.823
1.838
1.848
1.833
1.828
1.852
1.867
1.872
1.867
1.877
1.891
1.877
1.848
1.852
1.862
1.857
1.848
1.848
1.867
1.867
1.843
1.848
1.857
1.852
1.833
1.813
1.818
1.813
1.784
1.764
1.774
1.769
1.75
1.73
1.72
1.725
1.701
1.672
1.676
1.686
1.676
1.662
1.657
1.667
1.662
1.628
1.623
1.637
1.632
1.628
1.618
1.628
1.637
1.613
1.603
1.618
1.623
1.613
1.593
1.593
1.603
1.593
1.579
1.593
1.613
1.618
1.613
1.618
1.637
1.637
1.613
1.613
1.628
1.628
1.613
1.608
1.623
1.628
1.608
1.603
1.623
1.632
1.628
1.623
1.632
1.647
1.632
1.613
1.623
1.637
1.637
1.628
1.632
1.642
1.647
1.628
1.632
1.652
1.652
1.637
1.628
1.632
1.642
1.618
1.613
1.632
1.642
1.632
1.623
1.628
1.642
1.632
1.613
1.623
1.642
1.642
1.637
1.637
1.652
1.647
1.623
1.623
1.637
1.642
1.632
1.628
1.642
1.652
1.632
1.628
1.647
1.657
1.657
1.647
1.662
1.681
1.672
1.652
1.667
1.676
1.676
1.672
1.672
1.691
1.696
1.676
1.681
1.701
1.701
1.691
1.681
1.686
1.691
1.662
1.647
1.657
1.662
1.652
1.637
1.637
1.652
1.637
1.623
1.632
1.642
1.637
1.618
1.618
1.632
1.632
1.608
1.613
1.628
1.628
1.623
1.618
1.628
1.642
1.618
1.613
1.632
1.642
1.632
1.623
1.623
1.628
1.608
1.579
1.584
1.588
1.574
1.554
1.54
1.544
1.544
1.535
1.564
1.632
1.711
1.789
1.887
1.999
2.107
2.17
2.224
2.268
2.278
2.239
2.175
2.107
2.028
1.921
1.799
1.716
1.647
1.574
1.51
1.476
1.471
1.466
1.447
1.466
1.505
1.535
1.554
1.574
1.608
1.637
1.637
1.642
1.667
1.676
1.667
1.652
1.652
1.667
1.652
1.632
1.647
1.662
1.662
1.652
1.652
1.667
1.667
1.647
1.662
1.691
1.701
1.696
1.691
1.706
1.711
1.686
1.676
1.691
1.696
1.691
1.686
1.696
1.711
1.701
1.681
1.696
1.716
1.711
1.706
1.706
1.725
1.73
1.711
1.72
1.74
1.745
1.74
1.735
1.755
1.764
1.74
1.735
1.755
1.769
1.769
1.764
1.779
1.799
1.794
1.784
1.804
1.823
1.823
1.818
1.823
1.848
1.852
1.838
1.848
1.867
1.877
1.872
1.867
1.877
1.887
1.867
1.857
1.872
1.882
1.877
1.862
1.872
1.887
1.877
1.857
1.872
1.882
1.877
1.867
1.857
1.862
1.848
1.808
1.799
1.799
1.784
1.764
1.745
1.74
1.74
1.706
1.686
1.696
1.696
1.681
1.657
1.652
1.657
1.637
1.613
1.618
1.628
1.623
1.613
1.613
1.628
1.628
1.603
1.603
1.623
1.623
1.613
1.603
1.613
1.623
1.598
1.588
1.603
1.613
1.608
1.598
1.603
1.618
1.603
1.584
1.598
1.603
1.593
1.579
1.584
1.603
1.608
1.584
1.598
1.632
1.647
1.647
1.642
1.642
1.647
1.618
1.608
1.623
1.628
1.618
1.613
1.628
1.647
1.637
1.623
1.632
1.642
1.637
1.623
1.623
1.637
1.632
1.608
1.613
1.632
1.637
1.632
1.632
1.652
1.672
1.652
1.647
1.662
1.667
1.652
1.637
1.637
1.642
1.623
1.603
1.618
1.632
1.632
1.628
1.628
1.642
1.637
1.613
1.618
1.637
1.647
1.642
1.637
1.652
1.657
1.632
1.623
1.637
1.642
1.637
1.632
1.652
1.676
1.676
1.672
1.696
1.716
1.716
1.706
1.701
1.716
1.706
1.676
1.676
1.686
1.681
1.667
1.652
1.657
1.657
1.632
1.623
1.637
1.647
1.637
1.628
1.632
1.637
1.623
1.598
1.608
1.623
1.623
1.618
1.618
1.637
1.632
1.613
1.618
1.632
1.628
1.618
1.613
1.623
1.632
1.613
1.608
1.623
1.628
1.608
1.584
1.574
1.574
1.549
1.52
1.535
1.559
1.584
1.623
1.686
1.784
1.877
1.96
2.063
2.17
2.243
2.283
2.287
2.283
2.248
2.151
2.048
1.96
1.852
1.74
1.637
1.569
1.525
1.471
1.432
1.442
1.461
1.471
1.486
1.505
1.549
1.569
1.569
1.593
1.628
1.642
1.642
1.642
1.657
1.662
1.637
1.632
1.647
1.652
1.647
1.642
1.652
1.672
1.667
1.652
1.672
1.686
1.681
1.672
1.672
1.686
1.686
1.672
1.681
1.696
1.701
1.691
1.686
1.701
1.706
1.686
1.681
1.696
1.706
1.696
1.686
1.686
1.701
1.691
1.681
1.701
1.72
1.725
1.725
1.73
1.75
1.75
1.72
1.73
1.745
1.755
1.75
1.75
1.769
1.784
1.769
1.769
1.789
1.799
1.799
1.794
1.808
1.833
1.823
1.818
1.843
1.862
1.867
1.857
1.862
1.877
1.877
1.857
1.862
1.882
1.887
1.882
1.882
1.896
1.906
1.882
1.872
1.882
1.877
1.862
1.843
1.838
1.843
1.818
1.794
1.804
1.813
1.808
1.794
1.789
1.794
1.779
1.735
1.725
1.725
1.711
1.691
1.672
1.676
1.672
1.637
1.628
1.642
1.647
1.637
1.623
1.628
1.637
1.623
1.603
1.613
1.623
1.613
1.593
1.593
1.608
1.603
1.579
1.584
1.598
1.598
1.588
1.588
1.603
1.613
1.588
1.588
1.603
1.613
1.608
1.603
1.613
1.632
1.623
1.608
1.623
1.632
1.628
1.618
1.618
1.632
1.632
1.608
1.613
1.628
1.628
1.618
1.608
1.618
1.623
1.603
1.603
1.628
1.642
1.642
1.637
1.647
1.662
1.642
1.613
1.613
1.623
1.618
1.608
1.608
1.628
1.628
1.608
1.618
1.637
1.642
1.632
1.628
1.642
1.647
1.623
1.618
1.632
1.637
1.632
1.628
1.637
1.652
1.637
1.623
1.637
1.652
1.647
1.642
1.642
1.662
1.657
1.637
1.642
1.662
1.662
1.657
1.652
1.667
1.676
1.657
1.662
1.681
1.691
1.686
1.676
1.686
1.701
1.696
1.686
1.701
1.711
1.696
1.676
1.667
1.667
1.652
1.618
1.613
1.623
1.618
1.608
1.603
1.623
1.632
1.613
1.613
1.632
1.637
1.632
1.618
1.623
1.632
1.613
1.593
1.608
1.623
1.613
1.603
1.603
1.618
1.608
1.584
1.584
1.603
1.608
1.603
1.598
1.613
1.613
1.574
1.554
1.554
1.54
1.52
1.52
1.549
1.608
1.662
1.735
1.852
1.97
2.072
2.16
2.239
2.302
2.312
2.278
2.234
2.18
2.092
1.975
1.857
1.76
1.667
1.564
1.505
1.481
1.461
1.442
1.432
1.452
1.486
1.496
1.51
1.554
1.598
1.623
1.632
1.647
1.667
1.662
1.637
1.637
1.647
1.647
1.637
1.632
1.652
1.662
1.642
1.647
1.662
1.667
1.662
1.657
1.667
1.686
1.667
1.652
1.672
1.686
1.686
1.681
1.686
1.701
1.696
1.672
1.681
1.706
1.706
1.701
1.701
1.716
1.725
1.706
1.701
1.72
1.725
1.72
1.716
1.725
1.74
1.73
1.716
1.735
1.755
1.75
1.75
1.755
1.779
1.784
1.764
1.774
1.794
1.799
1.794
1.794
1.813
1.823
1.804
1.808
1.838
1.848
1.848
1.843
1.852
1.872
1.862
1.857
1.872
1.887
1.887
1.877
1.877
1.891
1.882
1.857
1.867
1.882
1.882
1.872
1.862
1.872
1.867
1.838
1.823
1.828
1.828
1.808
1.799
1.799
1.804
1.779
1.76
1.764
1.769
1.75
1.725
1.711
1.716
1.696
1.657
1.652
1.662
1.657
1.647
1.637
1.647
1.647
1.618
1.613
1.623
1.618
1.603
1.593
1.598
1.608
1.588
1.574
1.593
1.608
1.608
1.598
1.603
1.618
1.613
1.588
1.593
1.613
1.608
1.598
1.588
1.603
1.613
1.593
1.593
1.613
1.618
1.608
1.593
1.603
1.613
1.598
1.588
1.608
1.632
1.637
1.637
1.647
1.662
1.657
1.628
1.628
1.637
1.628
1.618
1.613
1.623
1.628
1.608
1.613
1.632
1.637
1.628
1.618
1.628
1.637
1.623
1.608
1.623
1.637
1.637
1.628
1.623
1.637
1.628
1.598
1.608
1.623
1.623
1.618
1.618
1.632
1.637
1.618
1.618
1.637
1.647
1.647
1.642
1.657
1.667
1.647
1.632
1.642
1.652
1.642
1.632
1.637
1.657
1.662
1.652
1.667
1.696
1.701
1.696
1.696
1.711
1.711
1.686
1.676
1.686
1.686
1.667
1.652
1.657
1.662
1.637
1.618
1.623
1.632
1.623
1.608
1.603
1.623
1.618
1.598
1.608
1.628
1.623
1.613
1.608
1.623
1.623
1.593
1.593
1.608
1.618
1.613
1.603
1.608
1.618
1.593
1.579
1.593
1.608
1.603
1.593
1.598
1.608
1.588
1.554
1.549
1.544
1.53
1.515
1.52
1.559
1.613
1.662
1.755
1.877
1.989
2.087
2.17
2.248
2.297
2.287
2.248
2.214
2.146
2.048
1.931
1.823
1.73
1.628
1.525
1.476
1.452
1.432
1.422
1.427
1.457
1.486
1.491
1.52
1.564
1.593
1.608
1.618
1.642
1.662
1.652
1.642
1.657
1.662
1.657
1.642
1.647
1.662
1.652
1.632
1.642
1.662
1.667
1.662
1.657
1.676
1.686
1.667
1.667
1.686
1.691
1.686
1.681
1.691
1.701
1.686
1.672
1.691
1.701
1.701
1.686
1.691
1.701
1.696
1.672
1.686
1.711
1.716
1.716
1.72
1.745
1.76
1.735
1.735
1.755
1.76
1.75
1.745
1.76
1.779
1.769
1.764
1.779
1.794
1.794
1.789
1.794
1.808
1.808
1.794
1.808
1.833
1.843
1.848
1.857
1.877
1.882
1.857
1.857
1.877
1.882
1.872
1.867
1.877
1.891
1.877
1.867
1.882
1.891
1.882
1.867
1.857
1.872
1.862
1.833
1.838
1.848
1.843
1.818
1.804
1.804
1.794
1.755
1.74
1.745
1.74
1.725
1.711
1.711
1.716
1.686
1.667
1.676
1.676
1.667
1.652
1.652
1.662
1.647
1.618
1.613
1.623
1.608
1.598
1.588
1.598
1.598
1.574
1.574
1.598
1.603
1.603
1.598
1.608
1.623
1.603
1.593
1.608
1.623
1.613
1.608
1.613
1.628
1.628
1.603
1.618
1.632
1.628
1.613
1.603
1.618
1.618
1.593
1.593
1.618
1.628
1.623
1.618
1.628
1.642
1.623
1.613
1.628
1.642
1.637
1.628
1.628
1.642
1.632
1.608
1.618
1.632
1.632
1.623
1.618
1.632
1.637
1.613
1.608
1.623
1.628
1.628
1.623
1.637
1.647
1.628
1.618
1.628
1.637
1.628
1.613
1.618
1.632
1.632
1.618
1.632
1.657
1.657
1.647
1.642
1.657
1.657
1.628
1.628
1.642
1.647
1.647
1.642
1.667
1.686
1.676
1.672
1.691
1.706
1.701
1.691
1.691
1.701
1.691
1.667
1.676
1.681
1.676
1.657
1.642
1.642
1.637
1.608
1.608
1.613
1.618
1.608
1.603
1.618
1.632
1.613
1.598
1.608
1.618
1.613
1.603
1.608
1.618
1.613
1.593
1.598
1.613
1.608
1.598
1.588
1.598
1.598
1.579
1.579
1.598
1.603
1.593
1.584
1.584
1.584
1.549
1.52
1.52
1.52
1.515
1.515
1.549
1.623
1.691
1.764
1.877
2.004
2.107
2.185
2.243
2.287
2.287
2.224
2.16
2.092
1.989
1.867
1.75
1.657
1.579
1.491
1.437
1.422
1.422
1.413
1.413
1.437
1.476
1.496
1.5
1.535
1.579
1.603
1.613
1.632
1.662
1.672
1.647
1.647
1.662
1.662
1.652
1.642
1.652
1.667
1.652
1.647
1.672
1.686
1.686
1.676
1.681
1.696
1.691
1.672
1.681
1.701
1.696
1.686
1.686
1.696
1.696
1.667
1.667
1.686
1.691
1.691
1.701
1.72
1.745
1.725
1.716
1.725
1.73
1.72
1.706
1.711
1.725
1.725
1.716
1.735
1.76
1.764
1.76
1.764
1.779
1.789
1.769
1.779
1.804
1.813
1.808
1.804
1.818
1.833
1.813
1.804
1.823
1.843
1.848
1.848
1.862
1.887
1.882
1.867
1.882
1.896
1.896
1.887
1.887
1.901
1.901
1.877
1.877
1.891
1.896
1.887
1.877
1.882
1.887
1.862
1.848
1.857
1.857
1.838
1.808
1.799
1.799
1.769
1.735
1.735
1.74
1.73
1.711
1.701
1.701
1.691
1.652
1.642
1.647
1.647
1.628
1.618
1.623
1.632
1.613
1.603
1.618
1.628
1.618
1.608
1.608
1.623
1.608
1.584
1.593
1.608
1.608
1.598
1.603
1.623
1.623
1.598
1.598
1.613
1.613
1.608
1.603
1.618
1.632
1.613
1.608
1.623
1.632
1.628
1.613
1.618
1.628
1.618
1.598
1.608
1.632
1.632
1.628
1.623
1.637
1.637
1.603
1.598
1.613
1.618
1.613
1.613
1.628
1.647
1.637
1.628
1.647
1.652
1.642
1.623
1.618
1.628
1.618
1.598
1.608
1.632
1.637
1.628
1.628
1.642
1.647
1.618
1.623
1.637
1.642
1.632
1.628
1.637
1.647
1.628
1.623
1.637
1.652
1.647
1.637
1.642
1.657
1.652
1.632
1.647
1.667
1.662
1.657
1.657
1.676
1.686
1.667
1.672
1.696
1.701
1.696
1.686
1.696
1.706
1.676
1.662
1.672
1.672
1.662
1.647
1.652
1.662
1.647
1.623
1.632
1.647
1.642
1.632
1.623
1.632
1.632
1.603
1.608
1.628
1.632
1.623
1.618
1.632
1.642
1.623
1.608
1.623
1.632
1.623
1.613
1.618
1.632
1.623
1.603
1.618
1.632
1.628
1.613
1.598
1.603
1.593
1.559
1.549
1.559
1.559
1.559
1.584
1.642
1.72
1.784
1.872
1.984
2.082
2.155
2.204
2.234
2.239
2.19
2.097
2.014
1.921
1.808
1.691
1.593
1.53
1.476
1.413
1.398
1.408
1.417
1.427
1.442
1.481
1.52
1.53
1.549
1.593
1.632
1.647
1.652
1.667
1.681
1.662
1.642
1.652
1.667
1.662
1.657
1.657
1.676
1.681
1.667
1.676
1.701
1.706
1.701
1.691
1.696
1.706
1.681
1.672
1.691
1.701
1.701
1.696
1.706
1.725
1.716
1.701
1.711
1.73
1.73
1.725
1.73
1.75
1.75
1.73
1.73
1.745
1.745
1.735
1.73
1.74
1.76
1.745
1.74
1.76
1.774
1.774
1.769
1.779
1.799
1.789
1.774
1.789
1.808
1.818
1.818
1.828
1.852
1.862
1.848
1.857
1.882
1.887
1.882
1.877
1.887
1.896
1.877
1.872
1.891
1.901
1.896
1.882
1.887
1.896
1.887
1.867
1.882
1.896
1.896
1.887
1.882
1.896
1.891
1.857
1.848
1.857
1.848
1.833
1.818
1.818
1.813
1.774
1.75
1.76
1.755
1.74
1.72
1.716
1.72
1.696
1.662
1.662
1.667
1.652
1.632
1.623
1.637
1.637
1.613
1.613
1.632
1.628
1.618
1.608
1.613
1.623
1.603
1.598
1.618
1.628
1.618
1.608
1.613
1.628
1.618
1.603
1.618
1.632
1.628
1.618
1.618
1.632
1.632
1.608
1.608
1.628
1.628
1.623
1.623
1.637
1.652
1.632
1.623
1.642
1.652
1.647
1.637
1.642
1.662
1.652
1.632
1.642
1.652
1.642
1.632
1.632
1.647
1.647
1.618
1.623
1.637
1.642
1.637
1.628
1.642
1.652
1.632
1.628
1.652
1.662
1.657
1.647
1.652
1.667
1.652
1.632
1.642
1.662
1.662
1.662
1.662
1.686
1.691
1.667
1.676
1.696
1.696
1.686
1.681
1.696
1.711
1.691
1.691
1.711
1.725
1.72
1.711
1.711
1.716
1.691
1.657
1.657
1.657
1.642
1.623
1.613
1.618
1.613
1.588
1.593
1.613
1.623
1.618
1.613
1.628
1.637
1.613
1.603
1.618
1.623
1.613
1.603
1.613
1.628
1.618
1.598
1.613
1.632
1.637
1.628
1.628
1.637
1.632
1.598
1.588
1.593
1.579
1.554
1.535
1.535
1.544
1.54
1.554
1.613
1.681
1.755
1.838
1.935
2.043
2.116
2.165
2.224
2.253
2.234
2.175
2.102
2.028
1.931
1.799
1.701
1.632
1.564
1.5
1.461
1.461
1.471
1.457
1.466
1.505
1.535
1.554
1.569
1.598
1.632
1.637
1.632
1.657
1.676
1.672
1.662
1.662
1.676
1.676
1.652
1.662
1.686
1.696
1.686
1.681
1.696
1.701
1.676
1.667
1.686
1.691
1.686
1.681
1.691
1.706
1.696
1.676
1.691
1.706
1.706
1.691
1.691
1.701
1.701
1.681
1.681
1.701
1.706
1.696
1.696
1.716
1.735
1.725
1.725
1.745
1.76
1.76
1.755
1.764
1.779
1.769
1.75
1.764
1.784
1.784
1.779
1.789
1.813
1.818
1.799
1.813
1.838
1.848
1.843
1.838
1.857
1.872
1.852
1.857
1.882
1.896
1.891
1.887
1.891
1.906
1.891
1.877
1.887
1.901
1.896
1.887
1.891
1.911
1.911
1.882
1.877
1.882
1.872
1.848
1.828
1.828
1.828
1.794
1.774
1.784
1.784
1.769
1.75
1.745
1.745
1.716
1.681
1.681
1.691
1.676
1.662
1.652
1.657
1.647
1.618
1.618
1.632
1.628
1.618
1.608
1.618
1.623
1.593
1.588
1.603
1.608
1.598
1.588
1.598
1.618
1.608
1.588
1.598
1.613
1.608
1.593
1.593
1.613
1.618
1.598
1.613
1.637
1.642
1.632
1.628
1.637
1.642
1.613
1.603
1.623
1.628
1.623
1.613
1.618
1.632
1.623
1.603
1.618
1.632
1.632
1.623
1.623
1.637
1.637
1.613
1.618
1.637
1.637
1.628
1.623
1.637
1.647
1.628
1.623
1.637
1.647
1.642
1.642
1.652
1.662
1.652
1.632
1.642
1.657
1.647
1.632
1.632
1.647
1.642
1.623
1.628
1.652
1.652
1.647
1.642
1.652
1.657
1.637
1.637
1.657
1.672
1.672
1.667
1.681
1.701
1.696
1.681
1.696
1.711
1.706
1.696
1.691
1.706
1.701
1.672
1.672
1.681
1.672
1.657
1.647
1.657
1.662
1.632
1.623
1.632
1.637
1.628
1.618
1.623
1.632
1.623
1.603
1.618
1.632
1.632
1.623
1.618
1.632
1.632
1.608
1.613
1.632
1.632
1.623
1.613
1.628
1.632
1.608
1.598
1.613
1.608
1.588
1.569
1.564
1.559
1.53
1.51
1.53
1.569
1.608
1.662
1.75
1.862
1.965
2.043
2.141
2.239
2.287
2.302
2.283
2.248
2.185
2.067
1.955
1.862
1.764
1.662
1.579
1.525
1.5
1.466
1.442
1.457
1.486
1.5
1.51
1.535
1.574
1.593
1.588
1.613
1.642
1.652
1.652
1.647
1.662
1.672
1.652
1.647
1.667
1.676
1.672
1.662
1.672
1.686
1.672
1.662
1.676
1.691
1.696
1.686
1.691
1.701
1.691
1.662
1.662
1.672
1.672
1.662
1.662
1.681
1.701
1.686
1.686
1.711
1.72
1.716
1.706
1.706
1.725
1.711
1.696
1.716
1.735
1.735
1.73
1.735
1.755
1.755
1.73
1.735
1.76
1.764
1.764
1.769
1.789
1.808
1.794
1.794
1.818
1.828
1.823
1.823
1.833
1.852
1.848
1.843
1.867
1.891
1.887
1.877
1.877
1.887
1.877
1.852
1.857
1.877
1.882
1.882
1.882
1.896
1.906
1.882
1.877
1.887
1.882
1.867
1.848
1.848
1.852
1.828
1.804
1.808
1.813
1.794
1.774
1.76
1.764
1.75
1.716
1.716
1.72
1.711
1.691
1.672
1.672
1.672
1.637
1.628
1.637
1.632
1.623
1.608
1.613
1.623
1.603
1.579
1.588
1.603
1.603
1.598
1.598
1.613
1.608
1.584
1.588
1.603
1.603
1.598
1.593
1.608
1.618
1.593
1.593
1.613
1.623
1.613
1.608
1.618
1.632
1.618
1.603
1.613
1.628
1.623
1.613
1.613
1.628
1.623
1.603
1.613
1.637
1.642
1.637
1.637
1.652
1.657
1.623
1.613
1.623
1.623
1.618
1.608
1.618
1.632
1.618
1.608
1.623
1.637
1.632
1.623
1.623
1.637
1.637
1.618
1.628
1.647
1.647
1.632
1.623
1.637
1.647
1.623
1.623
1.642
1.647
1.642
1.632
1.642
1.662
1.657
1.647
1.667
1.686
1.686
1.676
1.681
1.701
1.701
1.676
1.686
1.706
1.706
1.696
1.696
1.711
1.716
1.686
1.681
1.696
1.696
1.681
1.662
1.657
1.662
1.637
1.618
1.623
1.637
1.628
1.618
1.618
1.637
1.632
1.608
1.613
1.632
1.632
1.623
1.623
1.637
1.642
1.618
1.613
1.632
1.632
1.623
1.613
1.618
1.632
1.618
1.608
1.623
1.632
1.628
1.613
1.603
1.603
1.584
1.544
1.53
1.535
1.525
1.53
1.554
1.618
1.696
1.76
1.857
1.979
2.087
2.17
2.229
2.283
2.307
2.273
2.209
2.155
2.077
1.97
1.852
1.75
1.667
1.584
1.5
1.466
1.461
1.457
1.457
1.471
1.51
1.544
1.554
1.579
1.618
1.642
1.647
1.647
1.657
1.667
1.647
1.628
1.637
1.647
1.647
1.642
1.647
1.667
1.662
1.647
1.657
1.672
1.672
1.662
1.657
1.672
1.676
1.652
1.652
1.672
1.681
1.681
1.676
1.691
1.706
1.696
1.686
1.701
1.716
1.711
1.706
1.706
1.725
1.72
1.706
1.716
1.735
1.74
1.74
1.735
1.75
1.755
1.735
1.73
1.755
1.764
1.76
1.76
1.779
1.799
1.794
1.779
1.799
1.813
1.808
1.804
1.808
1.833
1.828
1.813
1.823
1.848
1.857
1.857
1.867
1.891
1.901
1.887
1.887
1.906
1.906
1.901
1.887
1.896
1.906
1.896
1.882
1.891
1.901
1.891
1.877
1.872
1.882
1.872
1.838
1.843
1.848
1.833
1.813
1.794
1.794
1.784
1.745
1.73
1.735
1.73
1.711
1.691
1.691
1.696
1.667
1.647
1.652
1.657
1.647
1.628
1.623
1.632
1.623
1.598
1.603
1.623
1.618
1.613
1.608
1.623
1.632
1.608
1.603
1.623
1.628
1.623
1.613
1.618
1.623
1.603
1.588
1.603
1.613
1.608
1.603
1.608
1.628
1.623
1.598
1.603
1.618
1.618
1.608
1.608
1.623
1.628
1.608
1.608
1.623
1.628
1.623
1.613
1.618
1.632
1.613
1.603
1.623
1.637
1.628
1.618
1.623
1.632
1.628
1.608
1.623
1.637
1.642
1.628
1.628
1.642
1.647
1.623
1.623
1.642
1.642
1.628
1.618
1.623
1.628
1.608
1.593
1.613
1.628
1.628
1.628
1.637
1.657
1.652
1.628
1.637
1.652
1.652
1.642
1.637
1.652
1.657
1.637
1.637
1.657
1.667
1.667
1.667
1.696
1.716
1.711
1.701
1.716
1.725
1.72
1.701
1.696
1.706
1.696
1.672
1.672
1.686
1.676
1.662
1.647
1.652
1.652
1.618
1.608
1.623
1.628
1.623
1.618
1.628
1.637
1.623
1.608
1.623
1.632
1.628
1.613
1.613
1.628
1.618
1.598
1.608
1.623
1.623
1.613
1.608
1.623
1.632
1.613
1.618
1.637
1.642
1.628
1.608
1.603
1.598
1.559
1.53
1.525
1.53
1.525
1.544
1.593
1.681
1.769
1.857
1.975
2.102
2.199
2.263
2.302
2.326
2.307
2.234
2.151
2.067
1.955
1.833
1.716
1.632
1.569
1.5
1.457
1.461
1.471
1.476
1.481
1.505
1.544
1.559
1.559
1.588
1.623
1.637
1.642
1.652
1.672
1.681
1.652
1.647
1.662
1.662
1.652
1.647
1.657
1.667
1.647
1.637
1.657
1.672
1.667
1.657
1.662
1.681
1.676
1.657
1.667
1.691
1.691
1.686
1.686
1.696
1.701
1.676
1.676
1.701
1.706
1.701
1.696
1.706
1.72
1.706
1.701
1.72
1.735
1.735
1.725
1.735
1.75
1.745
1.73
1.745
1.764
1.764
1.764
1.764
1.784
1.794
1.769
1.774
1.794
1.808
1.804
1.804
1.823
1.848
1.838
1.838
1.862
1.882
1.877
1.872
1.872
1.887
1.877
1.852
1.862
1.882
1.882
1.877
1.882
1.901
1.906
1.882
1.877
1.891
1.891
1.877
1.867
1.872
1.877
1.852
1.838
1.848
1.852
1.838
1.813
1.799
1.799
1.774
1.735
1.73
1.73
1.716
1.696
1.686
1.691
1.686
1.647
1.632
1.637
1.632
1.618
1.603
1.613
1.623
1.603
1.593
1.608
1.618
1.613
1.598
1.598
1.608
1.598
1.574
1.584
1.598
1.598
1.588
1.584
1.603
1.608
1.588
1.593
1.613
1.618
1.608
1.598
1.608
1.618
1.598
1.588
1.608
1.623
1.623
1.618
1.623
1.632
1.623
1.593
1.598
1.608
1.608
1.598
1.598
1.623
1.628
1.608
1.613
1.632
1.632
1.623
1.618
1.628
1.637
1.623
1.613
1.632
1.642
1.637
1.623
1.623
1.632
1.618
1.593
1.603
1.623
1.623
1.618
1.618
1.632
1.642
1.623
1.623
1.642
1.642
1.632
1.628
1.637
1.647
1.628
1.613
1.628
1.637
1.632
1.623
1.628
1.647
1.642
1.628
1.642
1.662
1.667
1.667
1.672
1.691
1.696
1.676
1.676
1.696
1.696
1.686
1.676
1.686
1.691
1.672
1.657
1.667
1.672
1.657
1.642
1.632
1.642
1.632
1.608
1.618
1.632
1.632
1.623
1.618
1.632
1.632
1.603
1.603
1.618
1.618
1.608
1.603
1.618
1.628
1.613
1.603
1.623
1.632
1.628
1.618
1.618
1.632
1.623
1.598
1.603
1.618
1.608
1.584
1.569
1.569
1.554
1.515
1.505
1.53
1.544
1.574
1.623
1.711
1.808
1.891
1.979
2.092
2.185
2.239
2.258
2.263
2.243
2.185
2.077
1.989
1.891
1.779
1.662
1.569
1.515
1.466
1.417
1.413
1.437
1.457
1.471
1.491
1.535
1.569
1.569
1.574
1.603
1.628
1.637
1.632
1.642
1.662
1.652
1.632
1.642
1.657
1.657
1.647
1.647
1.662
1.672
1.652
1.662
1.681
1.686
1.676
1.667
1.676
1.681
1.662
1.652
1.672
1.691
1.691
1.686
1.696
1.716
1.706
1.686
1.696
1.706
1.706
1.696
1.696
1.716
1.72
1.701
1.711
1.73
1.735
1.73
1.725
1.74
1.755
1.735
1.73
1.75
1.764
1.764
1.76
1.769
1.794
1.784
1.769
1.784
1.808
1.818
1.818
1.823
1.843
1.852
1.833
1.848
1.872
1.877
1.872
1.867
1.882
1.896
1.882
1.877
1.896
1.906
1.906
1.896
1.901
1.916
1.901
1.877
1.887
1.901
1.891
1.882
1.872
1.877
1.867
1.823
1.808
1.813
1.799
1.774
1.755
1.755
1.755
1.725
1.711
1.72
1.716
1.701
1.676
1.672
1.681
1.662
1.632
1.642
1.652
1.642
1.628
1.618
1.628
1.623
1.588
1.593
1.613
1.618
1.613
1.608
1.618
1.628
1.608
1.593
1.608
1.613
1.608
1.603
1.618
1.632
1.623
1.593
1.603
1.618
1.618
1.608
1.608
1.628
1.628
1.603
1.603
1.623
1.618
1.603
1.593
1.603
1.613
1.593
1.588
1.608
1.623
1.618
1.613
1.618
1.632
1.628
1.608
1.623
1.637
1.637
1.623
1.618
1.632
1.632
1.608
1.613
1.632
1.637
1.628
1.623
1.637
1.652
1.628
1.618
1.632
1.642
1.632
1.623
1.628
1.642
1.628
1.608
1.618
1.632
1.628
1.623
1.623
1.642
1.647
1.628
1.637
1.662
1.662
1.652
1.647
1.657
1.662
1.632
1.623
1.642
1.657
1.657
1.657
1.672
1.696
1.691
1.681
1.701
1.72
1.716
1.711
1.701
1.711
1.706
1.676
1.676
1.691
1.686
1.672
1.657
1.662
1.662
1.632
1.623
1.637
1.642
1.637
1.628
1.632
1.652
1.642
1.623
1.628
1.637
1.628
1.613
1.603
1.618
1.613
1.588
1.588
1.608
1.613
1.608
1.608
1.623
1.632
1.613
1.603
1.623
1.632
1.623
1.603
1.593
1.593
1.564
1.53
1.53
1.535
1.535
1.549
1.593
1.681
1.769
1.848
1.96
2.087
2.19
2.258
2.297
2.317
2.302
2.229
2.141
2.058
1.955
1.838
1.72
1.632
1.569
1.505
1.452
1.442
1.452
1.457
1.466
1.486
1.525
1.549
1.554
1.584
1.623
1.637
1.642
1.642
1.657
1.667
1.642
1.632
1.647
1.662
1.657
1.652
1.662
1.681
1.667
1.652
1.662
1.676
1.672
1.662
1.662
1.681
1.686
1.667
1.676
1.696
1.696
1.686
1.681
1.691
1.696
1.672
1.667
1.686
1.701
1.701
1.696
1.706
1.72
1.716
1.706
1.72
1.74
1.74
1.73
1.73
1.75
1.75
1.725
1.73
1.75
1.755
1.76
1.76
1.779
1.794
1.779
1.774
1.799
1.813
1.813
1.808
1.818
1.838
1.833
1.818
1.833
1.857
1.857
1.852
1.862
1.882
1.891
1.872
1.887
1.906
1.906
1.896
1.887
1.896
1.901
1.877
1.867
1.877
1.877
1.867
1.857
1.857
1.872
1.857
1.833
1.843
1.848
1.833
1.808
1.794
1.789
1.769
1.725
1.72
1.725
1.716
1.701
1.686
1.686
1.686
1.657
1.642
1.642
1.642
1.623
1.608
1.613
1.623
1.608
1.588
1.603
1.613
1.608
1.593
1.588
1.603
1.603
1.579
1.584
1.603
1.603
1.603
1.598
1.608
1.618
1.593
1.588
1.603
1.613
1.608
1.598
1.608
1.623
1.608
1.593
1.603
1.623
1.623
1.613
1.613
1.628
1.628
1.603
1.603
1.623
1.623
1.613
1.608
1.623
1.632
1.613
1.608
1.628
1.637
1.632
1.623
1.623
1.637
1.623
1.603
1.613
1.628
1.628
1.623
1.628
1.647
1.647
1.623
1.628
1.647
1.647
1.637
1.637
1.652
1.667
1.647
1.642
1.657
1.662
1.647
1.632
1.637
1.647
1.632
1.618
1.632
1.657
1.657
1.652
1.657
1.676
1.672
1.647
1.652
1.676
1.686
1.681
1.681
1.701
1.716
1.696
1.696
1.711
1.716
1.706
1.691
1.696
1.711
1.691
1.662
1.667
1.672
1.662
1.647
1.642
1.652
1.647
1.618
1.618
1.637
1.637
1.628
1.618
1.628
1.632
1.608
1.603
1.623
1.632
1.628
1.618
1.618
1.628
1.613
1.593
1.608
1.623
1.618
1.608
1.613
1.632
1.628
1.603
1.603
1.613
1.603
1.579
1.559
1.554
1.549
1.52
1.52
1.559
1.608
1.667
1.745
1.852
1.975
2.072
2.151
2.239
2.302
2.322
2.297
2.253
2.199
2.102
1.965
1.852
1.76
1.662
1.569
1.496
1.466
1.452
1.422
1.427
1.457
1.486
1.505
1.525
1.559
1.603
1.613
1.613
1.642
1.667
1.667
1.657
1.657
1.667
1.662
1.632
1.637
1.657
1.657
1.652
1.657
1.676
1.691
1.672
1.672
1.696
1.701
1.696
1.681
1.686
1.696
1.676
1.662
1.672
1.691
1.691
1.681
1.686
1.701
1.701
1.681
1.686
1.711
1.72
1.716
1.716
1.735
1.75
1.725
1.72
1.735
1.74
1.735
1.73
1.735
1.75
1.74
1.73
1.75
1.769
1.774
1.769
1.779
1.799
1.804
1.789
1.804
1.828
1.838
1.838
1.843
1.867
1.887
1.872
1.872
1.891
1.901
1.887
1.877
1.877
1.891
1.877
1.862
1.877
1.891
1.887
1.882
1.887
1.906
1.906
1.882
1.882
1.891
1.882
1.867
1.848
1.848
1.843
1.804
1.784
1.794
1.789
1.774
1.755
1.75
1.755
1.73
1.701
1.706
1.711
1.696
1.676
1.667
1.667
1.647
1.613
1.613
1.623
1.618
1.608
1.608
1.623
1.637
1.613
1.603
1.613
1.613
1.598
1.584
1.588
1.603
1.584
1.569
1.588
1.603
1.598
1.593
1.593
1.613
1.608
1.588
1.598
1.623
1.628
1.623
1.618
1.628
1.628
1.603
1.598
1.613
1.618
1.613
1.608
1.618
1.632
1.623
1.608
1.623
1.632
1.623
1.608
1.608
1.623
1.623
1.603
1.608
1.628
1.628
1.623
1.618
1.632
1.637
1.613
1.608
1.628
1.637
1.632
1.623
1.628
1.632
1.618
1.603
1.618
1.632
1.632
1.623
1.628
1.642
1.642
1.623
1.632
1.652
1.652
1.647
1.637
1.647
1.652
1.623
1.618
1.632
1.637
1.637
1.628
1.642
1.657
1.647
1.637
1.652
1.667
1.672
1.667
1.676
1.706
1.706
1.686
1.696
1.711
1.711
1.701
1.691
1.701
1.706
1.676
1.672
1.691
1.691
1.681
1.667
1.667
1.667
1.642
1.623
1.628
1.637
1.628
1.618
1.618
1.632
1.628
1.603
1.608
1.628
1.632
1.628
1.628
1.637
1.642
1.613
1.608
1.618
1.618
1.608
1.598
1.608
1.623
1.613
1.598
1.618
1.628
1.623
1.603
1.593
1.593
1.584
1.544
1.54
1.549
1.549
1.559
1.588
1.662
1.745
1.823
1.926
2.048
2.151
2.229
2.278
2.312
2.317
2.263
2.185
2.107
2.019
1.906
1.784
1.686
1.613
1.54
1.466
1.447
1.452
1.452
1.457
1.471
1.505
1.54
1.544
1.564
1.603
1.628
1.637
1.642
1.657
1.676
1.657
1.642
1.652
1.657
1.652
1.647
1.652
1.672
1.672
1.647
1.662
1.681
1.681
1.676
1.681
1.696
1.706
1.681
1.676
1.696
1.701
1.691
1.676
1.686
1.701
1.691
1.681
1.706
1.725
1.72
1.716
1.716
1.73
1.72
1.696
1.706
1.725
1.725
1.72
1.725
1.745
1.755
1.74
1.74
1.764
1.774
1.769
1.764
1.779
1.799
1.789
1.779
1.794
1.808
1.813
1.808
1.818
1.838
1.843
1.828
1.843
1.862
1.867
1.862
1.857
1.872
1.877
1.857
1.862
1.882
1.891
1.887
1.887
1.896
1.911
1.896
1.882
1.891
1.901
1.891
1.877
1.877
1.882
1.862
1.828
1.828
1.828
1.818
1.799
1.784
1.784
1.779
1.75
1.735
1.745
1.735
1.716
1.696
1.691
1.691
1.662
1.642
1.652
1.657
1.647
1.628
1.623
1.632
1.623
1.593
1.598
1.613
1.608
1.603
1.598
1.608
1.608
1.584
1.579
1.598
1.603
1.598
1.593
1.608
1.623
1.608
1.593
1.608
1.623
1.623
1.613
1.618
1.632
1.628
1.603
1.613
1.632
1.628
1.618
1.618
1.632
1.642
1.618
1.623
1.642
1.647
1.637
1.623
1.623
1.628
1.608
1.588
1.603
1.613
1.603
1.593
1.598
1.618
1.613
1.593
1.603
1.623
1.623
1.623
1.623
1.642
1.647
1.623
1.618
1.632
1.637
1.628
1.623
1.632
1.647
1.632
1.623
1.642
1.657
1.652
1.647
1.647
1.662
1.657
1.637
1.642
1.662
1.667
1.662
1.652
1.667
1.672
1.647
1.652
1.672
1.676
1.672
1.667
1.686
1.706
1.691
1.681
1.696
1.701
1.691
1.681
1.676
1.681
1.667
1.642
1.647
1.662
1.652
1.642
1.628
1.637
1.637
1.608
1.603
1.618
1.618
1.608
1.608
1.623
1.642
1.628
1.613
1.628
1.637
1.623
1.603
1.598
1.608
1.598
1.579
1.593
1.618
1.618
1.613
1.608
1.623
1.623
1.588
1.574
1.579
1.569
1.544
1.525
1.525
1.535
1.52
1.535
1.598
1.681
1.769
1.862
1.975
2.097
2.18
2.234
2.283
2.307
2.278
2.214
2.131
2.043
1.94
1.808
1.701
1.623
1.549
1.486
1.437
1.427
1.432
1.427
1.432
1.476
1.515
1.54
1.564
1.593
1.628
1.637
1.628
1.642
1.662
1.662
1.652
1.647
1.662
1.667
1.647
1.652
1.672
1.681
1.676
1.672
1.681
1.691
1.672
1.662
1.681
1.696
1.701
1.696
1.706
1.725
1.716
1.686
1.691
1.701
1.691
1.681
1.676
1.691
1.701
1.681
1.686
1.716
1.725
1.725
1.725
1.74
1.755
1.74
1.735
1.755
1.764
1.76
1.755
1.755
1.774
1.769
1.755
1.769
1.794
1.804
1.804
1.813
1.833
1.843
1.818
1.818
1.833
1.843
1.838
1.833
1.843
1.857
1.848
1.843
1.867
1.882
1.882
1.872
1.877
1.896
1.891
1.872
1.882
1.901
1.896
1.887
1.882
1.891
1.891
1.857
1.857
1.867
1.867
1.852
1.838
1.838
1.843
1.813
1.789
1.789
1.789
1.769
1.745
1.735
1.745
1.73
1.701
1.696
1.701
1.686
1.667
1.652
1.657
1.647
1.613
1.608
1.623
1.623
1.618
1.613
1.618
1.628
1.608
1.593
1.608
1.618
1.613
1.603
1.603
1.623
1.613
1.593
1.603
1.618
1.613
1.603
1.598
1.613
1.618
1.593
1.598
1.618
1.623
1.618
1.613
1.623
1.632
1.608
1.598
1.613
1.628
1.618
1.608
1.613
1.632
1.628
1.608
1.618
1.632
1.632
1.618
1.613
1.628
1.628
1.603
1.608
1.628
1.637
1.632
1.628
1.637
1.647
1.637
1.628
1.642
1.652
1.642
1.637
1.642
1.657
1.647
1.623
1.632
1.647
1.642
1.637
1.637
1.652
1.657
1.637
1.642
1.662
1.662
1.652
1.642
1.652
1.662
1.647
1.637
1.652
1.667
1.662
1.657
1.662
1.676
1.667
1.652
1.672
1.696
1.701
1.701
1.706
1.725
1.725
1.701
1.701
1.716
1.711
1.696
1.681
1.686
1.691
1.667
1.647
1.657
1.662
1.652
1.642
1.642
1.657
1.642
1.618
1.623
1.632
1.623
1.608
1.603
1.618
1.618
1.598
1.603
1.628
1.632
1.628
1.623
1.632
1.637
1.613
1.598
1.608
1.613
1.608
1.593
1.598
1.618
1.608
1.579
1.584
1.584
1.569
1.544
1.525
1.525
1.53
1.525
1.564
1.647
1.735
1.828
1.931
2.053
2.16
2.224
2.263
2.302
2.297
2.243
2.16
2.067
1.975
1.857
1.725
1.637
1.574
1.515
1.471
1.447
1.452
1.457
1.447
1.466
1.5
1.525
1.54
1.554
1.584
1.618
1.613
1.618
1.642
1.662
1.662
1.652
1.657
1.667
1.657
1.637
1.647
1.667
1.662
1.657
1.657
1.676
1.681
1.662
1.667
1.691
1.696
1.691
1.686
1.701
1.706
1.686
1.672
1.691
1.701
1.701
1.696
1.706
1.725
1.72
1.701
1.72
1.74
1.74
1.735
1.73
1.75
1.75
1.725
1.725
1.745
1.75
1.745
1.745
1.755
1.769
1.76
1.755
1.779
1.794
1.794
1.794
1.804
1.833
1.828
1.813
1.823
1.843
1.843
1.833
1.838
1.857
1.867
1.852
1.862
1.891
1.901
1.896
1.896
1.906
1.916
1.896
1.882
1.896
1.906
1.901
1.891
1.896
1.906
1.896
1.872
1.877
1.882
1.872
1.852
1.838
1.848
1.838
1.799
1.789
1.794
1.784
1.764
1.745
1.745
1.745
1.716
1.696
1.701
1.696
1.681
1.662
1.657
1.662
1.642
1.613
1.623
1.632
1.623
1.608
1.603
1.618
1.618
1.593
1.593
1.613
1.618
1.608
1.603
