Num1
1.657
1.657
1.672
1.672
1.657
1.647
1.662
1.672
1.652
1.647
1.662
1.672
1.657
1.642
1.647
1.657
1.632
1.603
1.598
1.598
1.579
1.559
1.559
1.588
1.623
1.662
1.755
1.891
2.023
2.141
2.239
2.331
2.39
2.385
2.366
2.336
2.273
2.175
2.063
1.965
1.887
1.789
1.701
1.652
1.632
1.608
1.593
1.603
1.642
1.657
1.647
1.652
1.667
1.657
1.637
1.623
1.632
1.647
1.632
1.628
1.647
1.652
1.642
1.628
1.632
1.652
1.637
1.618
1.632
1.652
1.647
1.637
1.642
1.667
1.672
1.647
1.647
1.662
1.662
1.647
1.637
1.652
1.662
1.642
1.637
1.657
1.667
1.662
1.647
1.657
1.676
1.667
1.647
1.662
1.686
1.681
1.672
1.676
1.696
1.696
1.672
1.672
1.691
1.691
1.681
1.672
1.691
1.706
1.686
1.686
1.706
1.716
1.711
1.701
1.711
1.73
1.716
1.701
1.716
1.73
1.725
1.716
1.72
1.735
1.735
1.711
1.72
1.74
1.74
1.725
1.72
1.735
1.745
1.72
1.711
1.73
1.735
1.725
1.716
1.725
1.74
1.72
1.701
1.711
1.73
1.73
1.72
1.725
1.75
1.75
1.725
1.72
1.74
1.735
1.716
1.706
1.716
1.725
1.701
1.696
1.716
1.725
1.716
1.701
1.706
1.716
1.696
1.672
1.681
1.691
1.686
1.672
1.667
1.686
1.686
1.657
1.662
1.681
1.676
1.662
1.647
1.657
1.667
1.637
1.628
1.642
1.657
1.652
1.642
1.657
1.676
1.662
1.642
1.657
1.667
1.662
1.652
1.647
1.667
1.667
1.642
1.647
1.667
1.667
1.652
1.642
1.662
1.672
1.647
1.647
1.672
1.686
1.681
1.672
1.676
1.691
1.672
1.647
1.657
1.667
1.662
1.647
1.652
1.672
1.672
1.652
1.657
1.676
1.672
1.662
1.652
1.662
1.672
1.647
1.642
1.667
1.681
1.672
1.662
1.672
1.691
1.672
1.647
1.652
1.667
1.662
1.647
1.652
1.672
1.672
1.652
1.657
1.681
1.681
1.672
1.662
1.676
1.681
1.657
1.647
1.667
1.672
1.667
1.657
1.667
1.686
1.672
1.652
1.667
1.681
1.672
1.657
1.652
1.667
1.662
1.642
1.652
1.672
1.681
1.672
1.672
1.686
1.696
1.667
1.657
1.667
1.672
1.652
1.642
1.657
1.676
1.667
1.652
1.662
1.676
1.672
1.662
1.662
1.681
1.681
1.657
1.662
1.686
1.691
1.686
1.686
1.706
1.716
1.696
1.696
1.72
1.735
1.73
1.72
1.735
1.755
1.74
1.725
1.745
1.764
1.764
1.75
1.75
1.764
1.755
1.725
1.73
1.74
1.735
1.72
1.711
1.725
1.73
1.701
1.691
1.701
1.701
1.686
1.667
1.676
1.691
1.672
1.652
1.662
1.676
1.667
1.652
1.652
1.672
1.672
1.642
1.647
1.672
1.667
1.652
1.632
1.637
1.628
1.584
1.564
1.569
1.574
1.579
1.598
1.662
1.76
1.852
1.965
2.107
2.239
2.322
2.37
2.4
2.414
2.375
2.292
2.219
2.141
2.038
1.931
1.833
1.769
1.716
1.647
1.613
1.618
1.628
1.628
1.637
1.662
1.686
1.667
1.642
1.647
1.652
1.642
1.628
1.628
1.647
1.642
1.618
1.623
1.642
1.642
1.632
1.632
1.652
1.662
1.632
1.628
1.647
1.647
1.637
1.628
1.642
1.662
1.647
1.637
1.652
1.667
1.662
1.652
1.657
1.676
1.672
1.647
1.657
1.676
1.672
1.657
1.652
1.667
1.676
1.652
1.652
1.672
1.686
1.681
1.676
1.691
1.706
1.691
1.672
1.691
1.706
1.701
1.691
1.696
1.72
1.72
1.701
1.706
1.73
1.73
1.716
1.711
1.725
1.73
1.706
1.701
1.725
1.74
1.735
1.73
1.745
1.764
1.745
1.73
1.735
1.745
1.74
1.725
1.735
1.755
1.755
1.73
1.735
1.755
1.745
1.73
1.72
1.73
1.735
1.711
1.706
1.73
1.735
1.725
1.711
1.72
1.735
1.716
1.706
1.725
1.74
1.735
1.72
1.72
1.735
1.72
1.691
1.691
1.706
1.706
1.696
1.691
1.706
1.716
1.686
1.676
1.691
1.691
1.676
1.662
1.672
1.686
1.667
1.652
1.667
1.681
1.672
1.657
1.657
1.672
1.662
1.637
1.642
1.662
1.662
1.647
1.642
1.662
1.672
1.647
1.647
1.667
1.672
1.662
1.657
1.667
1.681
1.667
1.647
1.667
1.676
1.672
1.657
1.662
1.676
1.667
1.647
1.647
1.667
1.667
1.657
1.657
1.672
1.681
1.657
1.657
1.676
1.686
1.672
1.657
1.667
1.681
1.667
1.652
1.667
1.681
1.672
1.662
1.667
1.691
1.681
1.657
1.667
1.681
1.681
1.667
1.662
1.686
1.686
1.662
1.662
1.676
1.681
1.672
1.657
1.667
1.681
1.662
1.647
1.667
1.681
1.676
1.662
1.667
1.686
1.676
1.657
1.662
1.681
1.676
1.667
1.662
1.676
1.676
1.652
1.647
1.667
1.672
1.662
1.657
1.667
1.686
1.667
1.652
1.667
1.681
1.676
1.662
1.667
1.691
1.691
1.662
1.667
1.681
1.676
1.657
1.652
1.667
1.676
1.652
1.657
1.681
1.691
1.681
1.667
1.681
1.691
1.667
1.652
1.667
1.681
1.676
1.662
1.667
1.686
1.676
1.657
1.662
1.686
1.686
1.676
1.676
1.701
1.711
1.686
1.686
1.711
1.725
1.72
1.72
1.745
1.769
1.755
1.745
1.76
1.769
1.755
1.735
1.735
1.75
1.74
1.716
1.72
1.735
1.73
1.716
1.706
1.72
1.72
1.686
1.681
1.701
1.701
1.686
1.667
1.672
1.681
1.657
1.642
1.652
1.667
1.662
1.647
1.657
1.681
1.676
1.657
1.662
1.676
1.667
1.642
1.623
1.628
1.618
1.579
1.569
1.584
1.603
1.628
1.672
1.769
1.887
1.979
2.072
2.18
2.268
2.317
2.326
2.322
2.307
2.239
2.136
2.048
1.97
1.877
1.779
1.701
1.662
1.632
1.588
1.588
1.628
1.652
1.662
1.667
1.681
1.696
1.667
1.642
1.652
1.667
1.657
1.647
1.657
1.676
1.667
1.642
1.652
1.667
1.662
1.647
1.642
1.662
1.672
1.652
1.652
1.672
1.676
1.667
1.657
1.667
1.686
1.667
1.652
1.672
1.691
1.681
1.676
1.686
1.706
1.696
1.672
1.676
1.696
1.696
1.686
1.686
1.706
1.716
1.696
1.696
1.72
1.725
1.711
1.701
1.711
1.72
1.701
1.691
1.711
1.73
1.725
1.716
1.725
1.75
1.74
1.72
1.73
1.755
1.755
1.745
1.74
1.76
1.764
1.74
1.74
1.76
1.764
1.755
1.745
1.76
1.779
1.76
1.75
1.764
1.774
1.764
1.75
1.75
1.769
1.755
1.735
1.745
1.764
1.764
1.755
1.755
1.774
1.779
1.75
1.745
1.76
1.76
1.75
1.73
1.74
1.755
1.735
1.72
1.74
1.75
1.745
1.73
1.735
1.755
1.74
1.716
1.72
1.73
1.72
1.706
1.701
1.72
1.72
1.701
1.696
1.716
1.716
1.701
1.686
1.696
1.706
1.676
1.662
1.676
1.691
1.681
1.672
1.676
1.696
1.686
1.662
1.672
1.686
1.686
1.672
1.667
1.681
1.686
1.662
1.667
1.686
1.686
1.676
1.667
1.681
1.701
1.681
1.667
1.686
1.696
1.691
1.676
1.681
1.706
1.696
1.676
1.681
1.701
1.696
1.681
1.676
1.696
1.696
1.672
1.667
1.691
1.696
1.686
1.676
1.691
1.706
1.686
1.672
1.691
1.706
1.696
1.681
1.691
1.716
1.701
1.681
1.696
1.716
1.706
1.691
1.681
1.696
1.696
1.667
1.662
1.686
1.691
1.686
1.676
1.691
1.696
1.676
1.657
1.676
1.691
1.686
1.672
1.681
1.701
1.686
1.662
1.672
1.686
1.686
1.672
1.672
1.691
1.696
1.672
1.676
1.696
1.696
1.681
1.672
1.686
1.701
1.676
1.667
1.681
1.691
1.681
1.667
1.672
1.691
1.681
1.657
1.672
1.691
1.691
1.681
1.686
1.711
1.711
1.686
1.691
1.711
1.716
1.706
1.696
1.716
1.73
1.716
1.711
1.735
1.75
1.745
1.74
1.745
1.769
1.76
1.735
1.74
1.76
1.755
1.74
1.735
1.75
1.745
1.716
1.716
1.725
1.725
1.706
1.691
1.701
1.711
1.686
1.672
1.686
1.696
1.681
1.667
1.667
1.681
1.662
1.642
1.657
1.672
1.672
1.657
1.662
1.681
1.681
1.657
1.652
1.667
1.657
1.632
1.608
1.608
1.613
1.584
1.584
1.618
1.667
1.72
1.794
1.891
1.999
2.063
2.107
2.165
2.204
2.199
2.16
2.116
2.072
2.009
1.911
1.838
1.789
1.73
1.672
1.632
1.628
1.632
1.613
1.618
1.647
1.672
1.667
1.657
1.657
1.672
1.652
1.632
1.642
1.662
1.657
1.642
1.642
1.657
1.657
1.632
1.637
1.657
1.662
1.652
1.647
1.662
1.676
1.652
1.647
1.672
1.686
1.676
1.662
1.667
1.681
1.667
1.652
1.662
1.681
1.676
1.662
1.657
1.681
1.681
1.657
1.662
1.686
1.691
1.681
1.672
1.691
1.701
1.686
1.676
1.696
1.711
1.701
1.696
1.706
1.73
1.72
1.701
1.716
1.73
1.725
1.716
1.716
1.735
1.73
1.706
1.711
1.73
1.735
1.725
1.72
1.74
1.755
1.735
1.725
1.75
1.76
1.755
1.745
1.755
1.769
1.755
1.73
1.74
1.755
1.755
1.735
1.74
1.764
1.764
1.74
1.74
1.76
1.76
1.745
1.735
1.745
1.755
1.73
1.72
1.74
1.75
1.74
1.73
1.735
1.755
1.735
1.711
1.716
1.73
1.72
1.701
1.701
1.72
1.716
1.691
1.691
1.711
1.706
1.691
1.676
1.686
1.691
1.667
1.657
1.672
1.676
1.662
1.647
1.652
1.667
1.652
1.632
1.642
1.662
1.657
1.647
1.647
1.662
1.662
1.632
1.637
1.657
1.662
1.652
1.647
1.662
1.672
1.647
1.642
1.662
1.667
1.657
1.642
1.652
1.672
1.652
1.637
1.647
1.662
1.657
1.647
1.647
1.667
1.667
1.647
1.652
1.676
1.681
1.667
1.657
1.672
1.676
1.652
1.642
1.662
1.672
1.662
1.652
1.667
1.681
1.667
1.647
1.657
1.672
1.667
1.652
1.652
1.667
1.667
1.647
1.657
1.676
1.681
1.667
1.662
1.676
1.681
1.652
1.642
1.657
1.662
1.657
1.642
1.652
1.672
1.652
1.637
1.647
1.662
1.657
1.647
1.652
1.681
1.681
1.662
1.667
1.681
1.672
1.652
1.642
1.652
1.657
1.637
1.628
1.647
1.662
1.657
1.647
1.652
1.667
1.647
1.628
1.642
1.657
1.652
1.637
1.637
1.662
1.662
1.642
1.652
1.672
1.676
1.662
1.657
1.667
1.667
1.637
1.628
1.647
1.657
1.652
1.642
1.662
1.686
1.676
1.662
1.681
1.701
1.696
1.686
1.686
1.706
1.701
1.676
1.686
1.711
1.72
1.711
1.716
1.735
1.755
1.735
1.73
1.74
1.74
1.72
1.706
1.716
1.73
1.72
1.701
1.711
1.725
1.716
1.696
1.696
1.706
1.696
1.667
1.667
1.681
1.676
1.657
1.647
1.657
1.662
1.632
1.628
1.642
1.657
1.647
1.642
1.652
1.667
1.652
1.637
1.647
1.652
1.637
1.608
1.588
1.584
1.559
1.53
1.549
1.598
1.657
1.73
1.838
1.975
2.107
2.185
2.263
2.336
2.37
2.351
2.302
2.248
2.175
2.063
1.945
1.867
1.799
1.72
1.657
1.628
1.628
1.618
1.598
1.618
1.647
1.657
1.647
1.632
1.642
1.642
1.613
1.603
1.623
1.637
1.628
1.618
1.628
1.642
1.628
1.613
1.628
1.642
1.642
1.628
1.632
1.657
1.647
1.623
1.623
1.637
1.632
1.623
1.618
1.642
1.652
1.637
1.637
1.657
1.667
1.652
1.637
1.642
1.657
1.642
1.628
1.647
1.667
1.662
1.657
1.662
1.681
1.672
1.642
1.647
1.672
1.681
1.672
1.672
1.691
1.701
1.681
1.676
1.701
1.706
1.696
1.686
1.701
1.72
1.706
1.691
1.706
1.72
1.716
1.701
1.706
1.725
1.725
1.701
1.711
1.73
1.735
1.725
1.72
1.74
1.745
1.716
1.711
1.73
1.74
1.73
1.72
1.73
1.745
1.725
1.711
1.725
1.735
1.725
1.711
1.716
1.735
1.73
1.711
1.72
1.74
1.735
1.72
1.706
1.72
1.72
1.696
1.686
1.706
1.716
1.706
1.696
1.711
1.72
1.701
1.686
1.696
1.706
1.691
1.676
1.676
1.696
1.686
1.657
1.657
1.676
1.672
1.652
1.647
1.657
1.662
1.637
1.632
1.652
1.657
1.647
1.637
1.647
1.662
1.642
1.628
1.642
1.662
1.657
1.647
1.647
1.667
1.657
1.632
1.642
1.662
1.662
1.647
1.642
1.662
1.667
1.642
1.637
1.662
1.667
1.657
1.642
1.657
1.672
1.657
1.642
1.652
1.667
1.657
1.647
1.652
1.672
1.667
1.647
1.652
1.672
1.667
1.657
1.652
1.667
1.672
1.647
1.642
1.662
1.672
1.662
1.657
1.667
1.681
1.662
1.647
1.662
1.676
1.667
1.652
1.652
1.672
1.662
1.632
1.637
1.657
1.657
1.642
1.637
1.652
1.657
1.628
1.628
1.642
1.652
1.642
1.637
1.652
1.672
1.657
1.647
1.662
1.672
1.662
1.647
1.647
1.662
1.657
1.637
1.647
1.667
1.667
1.657
1.647
1.662
1.667
1.642
1.637
1.657
1.662
1.652
1.642
1.652
1.672
1.647
1.637
1.652
1.667
1.662
1.647
1.652
1.676
1.672
1.647
1.652
1.672
1.667
1.657
1.657
1.676
1.681
1.662
1.672
1.701
1.711
1.706
1.701
1.72
1.735
1.72
1.711
1.73
1.745
1.745
1.735
1.74
1.755
1.745
1.716
1.72
1.735
1.735
1.72
1.716
1.73
1.73
1.701
1.691
1.706
1.701
1.681
1.672
1.676
1.681
1.657
1.642
1.652
1.662
1.657
1.642
1.652
1.672
1.667
1.647
1.657
1.672
1.667
1.652
1.647
1.662
1.657
1.618
1.603
1.603
1.588
1.564
1.549
1.564
1.603
1.623
1.681
1.794
1.931
2.048
2.155
2.258
2.346
2.38
2.37
2.361
2.326
2.253
2.155
2.053
1.975
1.882
1.779
1.711
1.676
1.642
1.613
1.598
1.618
1.647
1.642
1.647
1.667
1.676
1.652
1.628
1.623
1.637
1.623
1.603
1.613
1.637
1.637
1.628
1.623
1.642
1.642
1.613
1.613
1.632
1.642
1.632
1.628
1.642
1.662
1.642
1.628
1.642
1.652
1.642
1.628
1.637
1.657
1.657
1.642
1.657
1.676
1.672
1.657
1.647
1.662
1.662
1.632
1.632
1.657
1.662
1.657
1.657
1.676
1.696
1.681
1.672
1.686
1.701
1.686
1.672
1.681
1.701
1.686
1.667
1.676
1.701
1.701
1.691
1.696
1.72
1.73
1.711
1.711
1.73
1.735
1.725
1.716
1.73
1.74
1.716
1.706
1.725
1.74
1.74
1.725
1.735
1.76
1.75
1.725
1.735
1.76
1.75
1.735
1.73
1.745
1.745
1.72
1.72
1.74
1.74
1.72
1.706
1.72
1.73
1.706
1.696
1.711
1.725
1.72
1.706
1.711
1.725
1.711
1.686
1.696
1.711
1.711
1.696
1.696
1.711
1.711
1.681
1.676
1.691
1.691
1.676
1.667
1.676
1.691
1.667
1.657
1.672
1.676
1.662
1.647
1.647
1.667
1.657
1.632
1.642
1.662
1.662
1.652
1.642
1.657
1.657
1.628
1.628
1.647
1.647
1.637
1.632
1.652
1.672
1.652
1.647
1.667
1.681
1.667
1.652
1.657
1.676
1.662
1.637
1.647
1.667
1.662
1.652
1.652
1.672
1.672
1.647
1.647
1.672
1.676
1.667
1.662
1.672
1.681
1.657
1.642
1.662
1.672
1.662
1.647
1.657
1.681
1.667
1.647
1.657
1.672
1.667
1.652
1.647
1.662
1.667
1.647
1.647
1.672
1.672
1.662
1.657
1.676
1.691
1.667
1.657
1.667
1.676
1.667
1.652
1.657
1.676
1.662
1.642
1.652
1.672
1.662
1.652
1.647
1.667
1.667
1.642
1.647
1.667
1.676
1.667
1.662
1.672
1.681
1.657
1.642
1.657
1.667
1.657
1.642
1.652
1.676
1.667
1.652
1.667
1.681
1.676
1.662
1.657
1.676
1.676
1.652
1.657
1.676
1.681
1.667
1.657
1.676
1.686
1.662
1.652
1.672
1.686
1.686
1.676
1.691
1.711
1.701
1.681
1.691
1.706
1.706
1.696
1.706
1.74
1.75
1.74
1.75
1.774
1.774
1.76
1.745
1.75
1.75
1.725
1.711
1.73
1.74
1.735
1.725
1.73
1.745
1.725
1.701
1.701
1.711
1.696
1.676
1.667
1.686
1.681
1.657
1.662
1.676
1.676
1.667
1.657
1.672
1.681
1.657
1.642
1.657
1.662
1.652
1.637
1.637
1.642
1.613
1.574
1.569
1.574
1.564
1.559
1.579
1.652
1.73
1.813
1.95
2.107
2.229
2.312
2.37
2.424
2.439
2.39
2.322
2.258
2.17
2.058
1.945
1.862
1.794
1.716
1.642
1.623
1.623
1.618
1.613
1.632
1.667
1.672
1.647
1.642
1.657
1.652
1.632
1.623
1.637
1.652
1.623
1.613
1.632
1.642
1.632
1.623
1.632
1.657
1.642
1.623
1.637
1.652
1.647
1.632
1.632
1.652
1.652
1.628
1.637
1.657
1.657
1.647
1.637
1.657
1.672
1.652
1.647
1.662
1.672
1.662
1.652
1.667
1.686
1.676
1.662
1.676
1.696
1.686
1.676
1.676
1.701
1.706
1.686
1.691
1.711
1.711
1.701
1.691
1.706
1.716
1.691
1.691
1.711
1.725
1.72
1.711
1.725
1.74
1.725
1.706
1.725
1.745
1.745
1.735
1.74
1.764
1.76
1.735
1.73
1.745
1.745
1.735
1.73
1.75
1.764
1.745
1.74
1.76
1.769
1.76
1.745
1.75
1.764
1.745
1.725
1.735
1.745
1.74
1.725
1.72
1.735
1.735
1.716
1.72
1.74
1.74
1.73
1.72
1.735
1.75
1.72
1.716
1.73
1.735
1.725
1.711
1.716
1.725
1.706
1.686
1.696
1.711
1.701
1.681
1.676
1.691
1.681
1.657
1.657
1.676
1.672
1.657
1.652
1.672
1.681
1.657
1.652
1.676
1.681
1.676
1.662
1.672
1.691
1.672
1.657
1.667
1.681
1.672
1.662
1.662
1.681
1.676
1.657
1.657
1.676
1.681
1.672
1.667
1.681
1.686
1.662
1.657
1.681
1.686
1.676
1.667
1.676
1.696
1.681
1.662
1.672
1.681
1.676
1.662
1.662
1.681
1.676
1.657
1.662
1.686
1.681
1.672
1.662
1.681
1.691
1.667
1.662
1.686
1.696
1.686
1.676
1.681
1.691
1.672
1.652
1.667
1.681
1.672
1.662
1.667
1.691
1.691
1.662
1.667
1.681
1.686
1.672
1.667
1.681
1.686
1.662
1.652
1.667
1.672
1.662
1.652
1.667
1.686
1.672
1.657
1.672
1.686
1.676
1.662
1.662
1.681
1.676
1.652
1.657
1.681
1.681
1.672
1.662
1.681
1.686
1.662
1.657
1.681
1.686
1.672
1.662
1.672
1.686
1.672
1.657
1.676
1.696
1.696
1.691
1.696
1.72
1.716
1.686
1.696
1.72
1.725
1.72
1.725
1.755
1.774
1.755
1.76
1.779
1.789
1.774
1.755
1.76
1.769
1.745
1.725
1.74
1.755
1.75
1.735
1.735
1.75
1.74
1.716
1.711
1.716
1.706
1.676
1.667
1.676
1.681
1.652
1.647
1.676
1.686
1.676
1.667
1.681
1.701
1.681
1.662
1.672
1.686
1.672
1.657
1.657
1.667
1.652
1.618
1.608
1.618
1.603
1.584
1.584
1.623
1.667
1.711
1.794
1.916
2.023
2.107
2.17
2.239
2.287
2.278
2.248
2.219
2.17
2.092
1.994
1.911
1.848
1.764
1.681
1.642
1.637
1.628
1.623
1.632
1.676
1.701
1.696
1.696
1.711
1.701
1.676
1.652
1.657
1.662
1.642
1.632
1.652
1.667
1.667
1.657
1.662
1.676
1.667
1.637
1.642
1.662
1.662
1.657
1.662
1.681
1.691
1.667
1.662
1.681
1.686
1.676
1.667
1.686
1.706
1.691
1.676
1.696
1.706
1.696
1.676
1.681
1.701
1.691
1.672
1.681
1.706
1.711
1.701
1.701
1.72
1.735
1.711
1.711
1.73
1.74
1.735
1.725
1.735
1.745
1.72
1.706
1.725
1.74
1.74
1.73
1.74
1.764
1.76
1.735
1.745
1.764
1.764
1.75
1.75
1.769
1.774
1.75
1.745
1.769
1.774
1.764
1.755
1.769
1.789
1.769
1.76
1.774
1.789
1.784
1.769
1.774
1.789
1.779
1.755
1.755
1.769
1.764
1.75
1.745
1.764
1.774
1.745
1.745
1.764
1.769
1.755
1.74
1.75
1.76
1.74
1.725
1.735
1.745
1.735
1.716
1.716
1.73
1.72
1.696
1.701
1.716
1.711
1.691
1.686
1.706
1.706
1.676
1.667
1.681
1.681
1.672
1.662
1.672
1.686
1.667
1.657
1.676
1.696
1.686
1.672
1.676
1.696
1.681
1.662
1.672
1.691
1.691
1.681
1.676
1.696
1.696
1.672
1.672
1.691
1.696
1.681
1.672
1.686
1.701
1.686
1.672
1.691
1.701
1.696
1.681
1.686
1.706
1.696
1.672
1.681
1.701
1.701
1.691
1.686
1.701
1.701
1.676
1.676
1.696
1.706
1.696
1.686
1.701
1.711
1.691
1.676
1.691
1.701
1.691
1.676
1.681
1.701
1.691
1.672
1.681
1.701
1.701
1.686
1.676
1.696
1.691
1.662
1.662
1.681
1.686
1.676
1.672
1.681
1.696
1.676
1.662
1.676
1.686
1.681
1.672
1.676
1.696
1.681
1.657
1.672
1.686
1.686
1.672
1.667
1.696
1.706
1.691
1.696
1.725
1.73
1.725
1.72
1.74
1.764
1.745
1.74
1.76
1.769
1.76
1.745
1.745
1.755
1.74
1.716
1.725
1.74
1.735
1.72
1.716
1.735
1.73
1.701
1.696
1.706
1.706
1.686
1.667
1.676
1.686
1.662
1.647
1.662
1.676
1.667
1.657
1.662
1.681
1.667
1.642
1.652
1.667
1.667
1.652
1.647
1.657
1.652
1.618
1.608
1.618
1.608
1.584
1.569
1.593
1.637
1.667
1.73
1.838
1.95
2.033
2.102
2.175
2.234
2.239
2.204
2.18
2.136
2.063
1.965
1.882
1.823
1.755
1.672
1.628
1.623
1.613
1.603
1.608
1.642
1.672
1.657
1.652
1.667
1.672
1.657
1.642
1.642
1.662
1.647
1.628
1.637
1.657
1.652
1.642
1.637
1.657
1.662
1.637
1.642
1.662
1.667
1.657
1.642
1.662
1.672
1.652
1.637
1.657
1.672
1.667
1.657
1.667
1.686
1.676
1.657
1.662
1.681
1.681
1.667
1.667
1.691
1.696
1.676
1.676
1.701
1.701
1.686
1.676
1.686
1.701
1.681
1.676
1.701
1.716
1.711
1.701
1.711
1.73
1.72
1.696
1.706
1.725
1.72
1.711
1.711
1.73
1.74
1.716
1.72
1.74
1.745
1.745
1.745
1.769
1.779
1.75
1.735
1.745
1.75
1.73
1.716
1.72
1.74
1.735
1.72
1.735
1.76
1.76
1.745
1.74
1.755
1.75
1.725
1.725
1.745
1.745
1.73
1.72
1.735
1.75
1.725
1.716
1.735
1.745
1.73
1.716
1.72
1.735
1.725
1.701
1.716
1.725
1.711
1.696
1.686
1.696
1.691
1.662
1.662
1.681
1.686
1.672
1.662
1.672
1.676
1.652
1.642
1.662
1.667
1.657
1.637
1.642
1.657
1.637
1.613
1.623
1.637
1.637
1.628
1.637
1.662
1.667
1.642
1.647
1.662
1.662
1.647
1.642
1.652
1.662
1.642
1.632
1.657
1.667
1.657
1.652
1.662
1.681
1.667
1.647
1.657
1.667
1.662
1.647
1.647
1.667
1.672
1.647
1.657
1.681
1.686
1.672
1.662
1.676
1.686
1.657
1.642
1.657
1.667
1.657
1.647
1.657
1.676
1.667
1.647
1.657
1.676
1.667
1.647
1.642
1.657
1.657
1.632
1.637
1.662
1.667
1.662
1.652
1.667
1.681
1.657
1.647
1.662
1.672
1.662
1.652
1.657
1.672
1.652
1.632
1.642
1.657
1.652
1.642
1.642
1.672
1.676
1.652
1.647
1.662
1.657
1.637
1.628
1.637
1.647
1.628
1.623
1.642
1.662
1.662
1.652
1.667
1.691
1.676
1.662
1.676
1.696
1.696
1.691
1.696
1.725
1.73
1.711
1.72
1.75
1.75
1.735
1.72
1.73
1.735
1.706
1.696
1.716
1.73
1.72
1.706
1.711
1.725
1.706
1.681
1.686
1.696
1.686
1.662
1.652
1.667
1.662
1.632
1.632
1.652
1.657
1.647
1.637
1.652
1.662
1.632
1.623
1.637
1.647
1.642
1.628
1.632
1.647
1.623
1.588
1.579
1.574
1.549
1.53
1.535
1.579
1.613
1.652
1.745
1.877
2.004
2.111
2.204
2.297
2.361
2.366
2.351
2.336
2.283
2.185
2.072
1.979
1.896
1.789
1.691
1.647
1.623
1.598
1.579
1.593
1.632
1.647
1.637
1.647
1.667
1.662
1.642
1.623
1.632
1.637
1.613
1.608
1.628
1.632
1.618
1.603
1.613
1.637
1.623
1.608
1.623
1.637
1.632
1.623
1.623
1.642
1.637
1.608
1.613
1.637
1.642
1.632
1.632
1.652
1.667
1.642
1.637
1.652
1.652
1.642
1.628
1.642
1.662
1.652
1.637
1.657
1.676
1.672
1.657
1.657
1.676
1.676
1.647
1.652
1.676
1.681
1.672
1.672
1.691
1.701
1.676
1.672
1.691
1.706
1.701
1.691
1.701
1.72
1.706
1.696
1.706
1.725
1.72
1.711
1.711
1.73
1.725
1.701
1.711
1.73
1.74
1.73
1.725
1.75
1.764
1.745
1.74
1.76
1.76
1.74
1.72
1.73
1.745
1.725
1.706
1.72
1.735
1.725
1.711
1.706
1.725
1.716
1.691
1.691
1.716
1.716
1.711
1.706
1.72
1.725
1.701
1.691
1.706
1.711
1.701
1.686
1.696
1.711
1.691
1.672
1.681
1.696
1.681
1.652
1.652
1.662
1.657
1.632
1.637
1.662
1.662
1.647
1.637
1.647
1.652
1.623
1.613
1.628
1.632
1.628
1.618
1.632
1.657
1.647
1.632
1.647
1.662
1.652
1.637
1.632
1.652
1.647
1.628
1.637
1.657
1.657
1.647
1.642
1.662
1.667
1.642
1.632
1.647
1.662
1.657
1.652
1.662
1.676
1.662
1.642
1.657
1.672
1.657
1.637
1.632
1.652
1.647
1.628
1.637
1.662
1.662
1.652
1.647
1.662
1.667
1.642
1.637
1.657
1.662
1.652
1.642
1.652
1.667
1.647
1.628
1.642
1.657
1.652
1.637
1.642
1.662
1.652
1.628
1.632
1.652
1.657
1.647
1.642
1.657
1.667
1.642
1.637
1.657
1.662
1.652
1.637
1.647
1.667
1.652
1.637
1.652
1.667
1.662
1.647
1.647
1.667
1.662
1.637
1.647
1.662
1.662
1.652
1.647
1.667
1.672
1.647
1.642
1.662
1.667
1.657
1.647
1.667
1.691
1.676
1.657
1.676
1.701
1.706
1.696
1.706
1.735
1.74
1.72
1.735
1.76
1.76
1.745
1.73
1.745
1.745
1.72
1.72
1.735
1.74
1.73
1.716
1.72
1.725
1.701
1.676
1.681
1.686
1.667
1.647
1.647
1.667
1.657
1.632
1.637
1.657
1.652
1.642
1.642
1.657
1.662
1.632
1.632
1.652
1.657
1.647
1.628
1.628
1.628
1.588
1.554
1.549
1.549
1.54
1.54
1.593
1.686
1.794
1.906
2.067
2.229
2.356
2.444
2.512
2.551
2.542
2.468
2.38
2.292
2.18
2.048
1.916
1.823
1.75
1.667
1.603
1.598
1.603
1.608
1.613
1.637
1.667
1.662
1.637
1.632
1.637
1.628
1.613
1.603
1.623
1.632
1.608
1.603
1.623
1.632
1.618
1.608
1.618
1.637
1.623
1.608
1.628
1.637
1.632
1.618
1.623
1.642
1.637
1.613
1.628
1.652
1.652
1.642
1.637
1.657
1.662
1.637
1.637
1.662
1.667
1.657
1.647
1.662
1.681
1.662
1.647
1.667
1.681
1.676
1.667
1.681
1.706
1.701
1.681
1.686
1.711
1.706
1.691
1.686
1.706
1.711
1.686
1.681
1.706
1.711
1.701
1.686
1.701
1.716
1.696
1.686
1.711
1.735
1.735
1.73
1.74
1.764
1.76
1.735
1.745
1.764
1.76
1.745
1.74
1.76
1.764
1.74
1.735
1.755
1.755
1.75
1.74
1.76
1.774
1.755
1.74
1.755
1.764
1.745
1.725
1.72
1.735
1.72
1.696
1.706
1.725
1.725
1.716
1.716
1.735
1.735
1.706
1.701
1.72
1.725
1.711
1.696
1.701
1.711
1.681
1.667
1.672
1.681
1.672
1.662
1.667
1.686
1.672
1.642
1.647
1.662
1.652
1.637
1.632
1.652
1.657
1.637
1.632
1.657
1.662
1.652
1.637
1.652
1.667
1.647
1.632
1.647
1.662
1.652
1.637
1.642
1.662
1.652
1.628
1.637
1.657
1.657
1.647
1.647
1.667
1.667
1.642
1.637
1.652
1.657
1.642
1.632
1.647
1.667
1.647
1.642
1.657
1.667
1.657
1.642
1.642
1.662
1.652
1.637
1.647
1.667
1.667
1.652
1.647
1.667
1.662
1.632
1.628
1.642
1.647
1.642
1.637
1.657
1.672
1.652
1.637
1.652
1.662
1.652
1.632
1.632
1.652
1.647
1.628
1.642
1.662
1.662
1.647
1.642
1.662
1.662
1.632
1.632
1.652
1.657
1.642
1.637
1.647
1.662
1.642
1.632
1.647
1.657
1.652
1.647
1.652
1.672
1.662
1.642
1.647
1.662
1.652
1.637
1.632
1.652
1.657
1.632
1.637
1.662
1.676
1.662
1.657
1.667
1.681
1.662
1.657
1.686
1.711
1.716
1.716
1.73
1.755
1.755
1.735
1.745
1.764
1.76
1.74
1.735
1.75
1.75
1.72
1.716
1.73
1.73
1.716
1.701
1.706
1.716
1.686
1.667
1.676
1.676
1.657
1.637
1.637
1.657
1.647
1.632
1.637
1.652
1.652
1.637
1.637
1.652
1.652
1.623
1.623
1.642
1.642
1.618
1.598
1.593
1.588
1.549
1.52
1.525
1.53
1.53
1.549
1.603
1.701
1.789
1.901
2.058
2.214
2.331
2.414
2.478
2.522
2.507
2.434
2.351
2.258
2.136
1.999
1.872
1.779
1.711
1.623
1.574
1.569
1.584
1.593
1.598
1.628
1.662
1.657
1.637
1.637
1.637
1.618
1.598
1.588
1.603
1.603
1.579
1.579
1.603
1.613
1.608
1.603
1.618
1.632
1.613
1.608
1.632
1.647
1.637
1.628
1.628
1.642
1.623
1.598
1.608
1.628
1.628
1.618
1.623
1.647
1.652
1.628
1.628
1.647
1.647
1.637
1.632
1.652
1.676
1.657
1.652
1.672
1.686
1.676
1.667
1.672
1.691
1.681
1.672
1.681
1.706
1.701
1.691
1.691
1.711
1.711
1.691
1.696
1.725
1.735
1.725
1.72
1.735
1.75
1.73
1.72
1.735
1.745
1.74
1.73
1.745
1.764
1.755
1.735
1.745
1.76
1.76
1.745
1.745
1.769
1.769
1.75
1.755
1.774
1.774
1.764
1.76
1.769
1.779
1.75
1.735
1.75
1.76
1.755
1.74
1.75
1.774
1.76
1.745
1.755
1.774
1.769
1.75
1.745
1.755
1.745
1.716
1.716
1.73
1.73
1.711
1.701
1.711
1.716
1.691
1.672
1.686
1.691
1.676
1.662
1.662
1.676
1.662
1.637
1.647
1.667
1.662
1.642
1.637
1.657
1.652
1.628
1.637
1.662
1.667
1.652
1.642
1.652
1.667
1.642
1.637
1.652
1.662
1.657
1.647
1.662
1.681
1.672
1.652
1.657
1.676
1.667
1.647
1.642
1.662
1.657
1.628
1.628
1.652
1.662
1.652
1.647
1.667
1.681
1.657
1.652
1.667
1.676
1.662
1.647
1.652
1.676
1.657
1.637
1.642
1.657
1.652
1.642
1.642
1.667
1.667
1.642
1.642
1.662
1.662
1.652
1.642
1.652
1.662
1.642
1.632
1.647
1.657
1.647
1.637
1.642
1.662
1.652
1.632
1.652
1.667
1.667
1.652
1.647
1.667
1.667
1.637
1.637
1.657
1.657
1.647
1.642
1.657
1.667
1.642
1.637
1.657
1.672
1.667
1.652
1.657
1.676
1.662
1.642
1.652
1.662
1.657
1.642
1.642
1.667
1.667
1.647
1.657
1.681
1.681
1.672
1.672
1.686
1.701
1.676
1.667
1.686
1.701
1.701
1.696
1.716
1.745
1.74
1.73
1.75
1.769
1.764
1.745
1.74
1.755
1.745
1.716
1.716
1.735
1.735
1.72
1.716
1.725
1.73
1.701
1.681
1.691
1.691
1.667
1.652
1.657
1.676
1.662
1.647
1.662
1.676
1.672
1.657
1.652
1.667
1.657
1.632
1.637
1.657
1.657
1.642
1.632
1.642
1.637
1.598
1.569
1.569
1.564
1.549
1.549
1.579
1.637
1.686
1.76
1.891
2.033
2.155
2.248
2.336
2.419
2.449
2.424
2.39
2.341
2.248
2.121
1.999
1.901
1.808
1.701
1.632
1.613
1.608
1.603
1.608
1.642
1.681
1.681
1.662
1.667
1.672
1.652
1.632
1.628
1.642
1.642
1.613
1.623
1.647
1.647
1.637
1.628
1.642
1.662
1.632
1.628
1.642
1.652
1.642
1.628
1.637
1.657
1.642
1.628
1.647
1.667
1.667
1.657
1.662
1.681
1.676
1.652
1.652
1.672
1.676
1.667
1.662
1.681
1.696
1.676
1.672
1.696
1.711
1.701
1.691
1.701
1.716
1.701
1.686
1.706
1.725
1.725
1.716
1.72
1.75
1.75
1.725
1.73
1.75
1.75
1.735
1.725
1.745
1.755
1.735
1.73
1.755
1.764
1.76
1.75
1.76
1.779
1.764
1.75
1.764
1.784
1.779
1.769
1.774
1.799
1.794
1.769
1.769
1.789
1.784
1.769
1.764
1.784
1.794
1.774
1.769
1.789
1.794
1.784
1.769
1.774
1.789
1.769
1.75
1.76
1.769
1.76
1.75
1.75
1.764
1.76
1.735
1.74
1.76
1.755
1.74
1.725
1.74
1.74
1.711
1.701
1.716
1.716
1.701
1.691
1.701
1.711
1.691
1.667
1.672
1.676
1.667
1.652
1.647
1.662
1.662
1.637
1.647
1.672
1.676
1.667
1.662
1.676
1.686
1.657
1.652
1.672
1.686
1.681
1.672
1.681
1.696
1.681
1.662
1.676
1.686
1.676
1.662
1.667
1.691
1.696
1.672
1.681
1.696
1.691
1.676
1.667
1.681
1.686
1.662
1.657
1.681
1.691
1.686
1.676
1.691
1.706
1.686
1.667
1.676
1.691
1.686
1.672
1.672
1.691
1.686
1.662
1.672
1.691
1.691
1.676
1.667
1.686
1.691
1.667
1.657
1.676
1.681
1.672
1.662
1.667
1.686
1.672
1.657
1.672
1.691
1.686
1.672
1.676
1.696
1.686
1.662
1.667
1.686
1.681
1.667
1.657
1.676
1.686
1.667
1.662
1.691
1.701
1.696
1.691
1.701
1.72
1.701
1.681
1.696
1.716
1.716
1.716
1.73
1.764
1.764
1.745
1.755
1.774
1.774
1.76
1.745
1.755
1.755
1.725
1.725
1.74
1.75
1.74
1.725
1.735
1.745
1.72
1.696
1.701
1.706
1.686
1.667
1.667
1.686
1.676
1.652
1.657
1.681
1.681
1.672
1.662
1.681
1.681
1.657
1.647
1.672
1.676
1.662
1.647
1.652
1.667
1.642
1.618
1.618
1.623
1.603
1.584
1.584
1.608
1.628
1.652
1.73
1.848
1.955
2.053
2.146
2.243
2.312
2.322
2.326
2.326
2.283
2.199
2.107
2.023
1.94
1.833
1.735
1.681
1.642
1.608
1.588
1.603
1.637
1.652
1.642
1.667
1.686
1.686
1.662
1.642
1.652
1.652
1.628
1.628
1.647
1.657
1.652
1.647
1.662
1.681
1.667
1.647
1.662
1.672
1.662
1.642
1.647
1.672
1.667
1.647
1.657
1.676
1.676
1.662
1.657
1.676
1.681
1.657
1.652
1.676
1.686
1.681
1.672
1.686
1.701
1.681
1.667
1.681
1.696
1.686
1.676
1.691
1.711
1.711
1.696
1.711
1.73
1.735
1.73
1.725
1.74
1.745
1.716
1.711
1.73
1.735
1.725
1.716
1.735
1.76
1.745
1.74
1.76
1.774
1.769
1.76
1.764
1.789
1.779
1.76
1.769
1.784
1.784
1.769
1.764
1.784
1.789
1.764
1.76
1.779
1.784
1.779
1.769
1.779
1.794
1.769
1.755
1.769
1.774
1.764
1.755
1.755
1.774
1.764
1.745
1.755
1.774
1.769
1.755
1.75
1.76
1.76
1.73
1.725
1.74
1.74
1.725
1.711
1.716
1.72
1.691
1.672
1.686
1.696
1.686
1.667
1.672
1.691
1.681
1.652
1.662
1.681
1.681
1.667
1.662
1.681
1.681
1.652
1.652
1.667
1.672
1.662
1.647
1.662
1.676
1.657
1.647
1.662
1.676
1.672
1.662
1.667
1.686
1.672
1.647
1.657
1.672
1.667
1.657
1.652
1.672
1.672
1.652
1.652
1.676
1.676
1.662
1.652
1.662
1.676
1.657
1.647
1.667
1.686
1.686
1.676
1.691
1.716
1.706
1.676
1.681
1.696
1.691
1.672
1.662
1.676
1.681
1.652
1.657
1.681
1.686
1.676
1.662
1.672
1.681
1.662
1.647
1.662
1.676
1.672
1.657
1.667
1.691
1.681
1.657
1.662
1.681
1.676
1.667
1.667
1.691
1.701
1.676
1.681
1.706
1.711
1.701
1.686
1.701
1.716
1.701
1.691
1.716
1.735
1.735
1.725
1.735
1.76
1.75
1.725
1.73
1.75
1.75
1.735
1.73
1.745
1.745
1.716
1.711
1.73
1.725
1.706
1.686
1.686
1.686
1.652
1.632
1.642
1.652
1.642
1.632
1.642
1.662
1.657
1.637
1.642
1.662
1.652
1.637
1.637
1.657
1.667
1.637
1.632
1.637
1.628
1.598
1.569
1.564
1.559
1.535
1.53
1.569
1.628
1.691
1.779
1.901
2.043
2.146
2.224
2.312
2.38
2.4
2.375
2.331
2.278
2.195
2.067
1.96
1.872
1.784
1.696
1.623
1.598
1.593
1.574
1.579
1.613
1.642
1.647
1.637
1.642
1.652
1.632
1.603
1.613
1.628
1.623
1.608
1.603
1.618
1.618
1.593
1.598
1.623
1.632
1.628
1.623
1.637
1.652
1.628
1.618
1.632
1.642
1.637
1.632
1.637
1.652
1.637
1.613
1.618
1.632
1.632
1.623
1.623
1.647
1.652
1.632
1.637
1.662
1.667
1.662
1.652
1.667
1.681
1.662
1.652
1.667
1.676
1.667
1.657
1.667
1.686
1.681
1.667
1.681
1.706
1.706
1.691
1.691
1.716
1.72
1.696
1.701
1.725
1.73
1.72
1.711
1.73
1.745
1.725
1.711
1.725
1.74
1.74
1.735
1.75
1.774
1.764
1.745
1.75
1.76
1.745
1.725
1.72
1.735
1.73
1.706
1.716
1.74
1.75
1.735
1.725
1.735
1.74
1.716
1.706
1.72
1.73
1.72
1.706
1.711
1.73
1.716
1.691
1.701
1.711
1.706
1.686
1.681
1.696
1.701
1.672
1.672
1.691
1.691
1.676
1.662
1.676
1.681
1.652
1.632
1.642
1.647
1.632
1.618
1.628
1.642
1.632
1.613
1.628
1.647
1.642
1.632
1.628
1.652
1.652
1.632
1.632
1.647
1.647
1.632
1.623
1.637
1.652
1.628
1.613
1.632
1.637
1.632
1.618
1.628
1.647
1.637
1.618
1.637
1.662
1.657
1.642
1.647
1.662
1.667
1.642
1.642
1.662
1.662
1.652
1.642
1.652
1.667
1.647
1.637
1.657
1.667
1.657
1.642
1.652
1.662
1.647
1.628
1.637
1.657
1.657
1.647
1.652
1.672
1.672
1.642
1.642
1.657
1.657
1.647
1.642
1.657
1.672
1.647
1.637
1.652
1.662
1.652
1.642
1.647
1.667
1.652
1.632
1.642
1.662
1.657
1.642
1.647
1.667
1.662
1.642
1.647
1.667
1.672
1.662
1.657
1.672
1.686
1.657
1.642
1.652
1.657
1.642
1.628
1.637
1.657
1.652
1.642
1.662
1.686
1.686
1.681
1.681
1.706
1.706
1.686
1.696
1.725
1.73
1.72
1.716
1.725
1.735
1.711
1.701
1.72
1.725
1.716
1.701
1.706
1.72
1.701
1.676
1.681
1.691
1.681
1.657
1.647
1.662
1.657
1.632
1.632
1.647
1.652
1.642
1.632
1.652
1.662
1.637
1.623
1.642
1.647
1.637
1.623
1.628
1.642
1.618
1.584
1.584
1.579
1.559
1.535
1.53
1.554
1.584
1.613
1.701
1.838
1.975
2.107
2.234
2.356
2.444
2.468
2.473
2.463
2.414
2.326
2.214
2.111
2.019
1.896
1.779
1.716
1.672
1.623
1.588
1.584
1.613
1.628
1.618
1.628
1.647
1.642
1.623
1.608
1.618
1.628
1.608
1.598
1.618
1.628
1.618
1.603
1.608
1.628
1.613
1.603
1.618
1.637
1.628
1.613
1.608
1.623
1.623
1.598
1.598
1.623
1.628
1.618
1.613
1.632
1.647
1.623
1.618
1.642
1.652
1.647
1.637
1.652
1.672
1.657
1.642
1.652
1.667
1.662
1.652
1.647
1.672
1.667
1.647
1.657
1.676
1.686
1.681
1.676
1.696
1.706
1.681
1.672
1.691
1.701
1.691
1.681
1.696
1.716
1.706
1.691
1.711
1.73
1.73
1.72
1.72
1.74
1.74
1.72
1.725
1.745
1.75
1.735
1.73
1.745
1.755
1.73
1.725
1.745
1.755
1.745
1.735
1.745
1.764
1.745
1.72
1.73
1.74
1.735
1.72
1.72
1.74
1.74
1.716
1.72
1.74
1.745
1.73
1.725
1.74
1.745
1.72
1.706
1.72
1.725
1.711
1.691
1.691
1.696
1.676
1.657
1.672
1.686
1.681
1.662
1.662
1.681
1.676
1.647
1.652
1.667
1.667
1.652
1.642
1.657
1.662
1.637
1.632
1.647
1.652
1.642
1.632
1.637
1.657
1.637
1.618
1.632
1.647
1.642
1.628
1.628
1.652
1.652
1.632
1.642
1.667
1.672
1.657
1.652
1.672
1.676
1.647
1.637
1.657
1.667
1.657
1.647
1.657
1.681
1.667
1.647
1.657
1.672
1.667
1.652
1.652
1.672
1.672
1.647
1.652
1.667
1.667
1.652
1.642
1.657
1.662
1.637
1.628
1.647
1.657
1.652
1.647
1.662
1.681
1.662
1.647
1.657
1.672
1.667
1.647
1.647
1.662
1.662
1.637
1.647
1.672
1.676
1.667
1.657
1.672
1.681
1.652
1.642
1.657
1.662
1.652
1.637
1.647
1.662
1.647
1.632
1.652
1.667
1.667
1.657
1.657
1.676
1.672
1.647
1.652
1.672
1.667
1.652
1.642
1.662
1.667
1.647
1.642
1.662
1.667
1.652
1.642
1.657
1.676
1.662
1.637
1.647
1.662
1.652
1.642
1.642
1.657
1.652
1.632
1.637
1.662
1.662
1.657
1.652
1.676
1.686
1.667
1.662
1.691
1.701
1.696
1.686
1.696
1.716
1.701
1.686
1.706
1.725
1.725
1.716
1.725
1.75
1.755
1.735
1.74
1.76
1.755
1.74
1.73
1.745
1.75
1.72
1.711
1.725
1.725
1.711
1.696
1.706
1.716
1.696
1.672
1.681
1.691
1.681
1.667
1.667
1.676
1.667
1.637
1.637
1.662
1.667
1.662
1.657
1.672
1.676
1.647
1.637
1.647
1.637
1.608
1.579
1.569
1.569
1.54
1.515
1.54
1.569
1.603
1.657
1.76
1.906
2.043
2.165
2.297
2.414
2.483
2.512
2.507
2.488
2.434
2.322
2.214
2.126
2.023
1.901
1.789
1.716
1.672
1.613
1.574
1.588
1.618
1.628
1.637
1.652
1.676
1.662
1.628
1.623
1.632
1.628
1.613
1.613
1.632
1.642
1.618
1.608
1.628
1.632
1.623
1.618
1.628
1.647
1.628
1.613
1.628
1.647
1.642
1.632
1.642
1.662
1.657
1.632
1.628
1.642
1.632
1.618
1.613
1.632
1.642
1.628
1.632
1.662
1.672
1.672
1.662
1.672
1.686
1.667
1.652
1.667
1.681
1.681
1.672
1.681
1.706
1.701
1.676
1.686
1.711
1.711
1.696
1.691
1.706
1.711
1.691
1.691
1.711
1.72
1.716
1.706
1.716
1.73
1.716
1.706
1.725
1.745
1.74
1.73
1.735
1.755
1.745
1.72
1.73
1.755
1.755
1.745
1.745
1.764
1.769
1.75
1.745
1.769
1.774
1.76
1.745
1.755
1.764
1.74
1.72
1.73
1.735
1.725
1.711
1.716
1.735
1.73
1.711
1.72
1.74
1.74
1.735
1.735
1.75
1.75
1.72
1.711
1.72
1.72
1.701
1.686
1.696
1.711
1.686
1.667
1.676
1.686
1.672
1.652
1.652
1.667
1.657
1.637
1.647
1.667
1.662
1.652
1.647
1.667
1.676
1.652
1.647
1.667
1.672
1.657
1.642
1.647
1.662
1.647
1.632
1.652
1.672
1.667
1.662
1.672
1.691
1.681
1.652
1.662
1.676
1.676
1.662
1.652
1.672
1.676
1.652
1.652
1.672
1.681
1.667
1.657
1.672
1.686
1.662
1.647
1.662
1.672
1.667
1.647
1.647
1.667
1.657
1.632
1.647
1.672
1.676
1.667
1.667
1.686
1.691
1.667
1.662
1.686
1.686
1.667
1.647
1.657
1.672
1.652
1.637
1.657
1.667
1.662
1.652
1.657
1.676
1.667
1.647
1.657
1.676
1.676
1.662
1.657
1.676
1.681
1.652
1.647
1.662
1.667
1.662
1.652
1.667
1.681
1.662
1.647
1.662
1.672
1.662
1.647
1.657
1.676
1.667
1.647
1.657
1.676
1.676
1.662
1.657
1.672
1.676
1.647
1.642
1.667
1.672
1.662
1.652
1.667
1.681
1.662
1.652
1.667
1.681
1.672
1.657
1.657
1.676
1.667
1.647
1.662
1.681
1.681
1.672
1.672
1.691
1.696
1.667
1.662
1.676
1.676
1.662
1.652
1.662
1.676
1.662
1.647
1.667
1.686
1.681
1.676
1.686
1.716
1.711
1.686
1.696
1.711
1.711
1.696
1.696
1.716
1.73
1.711
1.72
1.755
1.769
1.764
1.76
1.769
1.784
1.76
1.74
1.755
1.764
1.76
1.745
1.755
1.774
1.764
1.74
1.74
1.755
1.745
1.725
1.716
1.72
1.716
1.676
1.667
1.686
1.686
1.672
1.657
1.672
1.686
1.667
1.657
1.676
1.696
1.681
1.667
1.667
1.686
1.672
1.652
1.647
1.657
1.637
1.608
1.579
1.584
1.574
1.554
1.569
1.632
1.711
1.799
1.906
2.053
2.195
2.287
2.366
2.444
2.483
2.468
2.419
2.356
2.283
2.17
2.033
1.931
1.843
1.76
1.681
1.637
1.632
1.637
1.623
1.642
1.681
1.701
1.691
1.681
1.681
1.676
1.642
1.623
1.632
1.642
1.637
1.628
1.637
1.657
1.647
1.628
1.637
1.662
1.657
1.647
1.642
1.662
1.667
1.642
1.642
1.662
1.672
1.662
1.657
1.672
1.686
1.667
1.657
1.672
1.686
1.676
1.662
1.667
1.686
1.676
1.657
1.672
1.691
1.691
1.676
1.672
1.691
1.696
1.681
1.686
1.711
1.716
1.711
1.701
1.72
1.73
1.716
1.706
1.725
1.74
1.735
1.73
1.735
1.76
1.745
1.725
1.73
1.75
1.75
1.74
1.74
1.76
1.764
1.74
1.74
1.76
1.764
1.755
1.755
1.774
1.794
1.769
1.755
1.769
1.779
1.769
1.76
1.764
1.784
1.779
1.76
1.769
1.789
1.779
1.76
1.755
1.769
1.764
1.74
1.74
1.76
1.764
1.755
1.74
1.755
1.769
1.75
1.74
1.755
1.769
1.76
1.745
1.75
1.76
1.745
1.72
1.725
1.735
1.725
1.711
1.706
1.72
1.725
1.701
1.701
1.716
1.716
1.701
1.686
1.696
1.701
1.672
1.657
1.672
1.686
1.681
1.667
1.676
1.691
1.681
1.657
1.667
1.686
1.686
1.672
1.667
1.686
1.686
1.662
1.662
1.686
1.686
1.681
1.676
1.696
1.711
1.686
1.676
1.691
1.701
1.691
1.676
1.686
1.706
1.696
1.676
1.691
1.711
1.711
1.696
1.691
1.706
1.706
1.676
1.676
1.691
1.691
1.681
1.676
1.686
1.701
1.681
1.672
1.686
1.696
1.686
1.672
1.676
1.696
1.681
1.662
1.672
1.696
1.691
1.681
1.681
1.696
1.696
1.672
1.676
1.696
1.696
1.686
1.672
1.686
1.701
1.676
1.667
1.681
1.691
1.681
1.667
1.672
1.691
1.672
1.652
1.667
1.691
1.686
1.676
1.676
1.696
1.696
1.667
1.667
1.681
1.681
1.672
1.662
1.676
1.686
1.662
1.652
1.672
1.686
1.686
1.676
1.691
1.711
1.701
1.681
1.691
1.706
1.691
1.672
1.662
1.676
1.681
1.657
1.662
1.686
1.691
1.691
1.686
1.701
1.716
1.696
1.691
1.711
1.725
1.72
1.716
1.725
1.75
1.74
1.73
1.75
1.769
1.769
1.764
1.764
1.784
1.779
1.75
1.745
1.755
1.755
1.74
1.73
1.745
1.755
1.725
1.711
1.725
1.735
1.72
1.701
1.701
1.716
1.701
1.676
1.681
1.701
1.686
1.672
1.672
1.686
1.686
1.662
1.667
1.686
1.691
1.676
1.672
1.686
1.696
1.667
1.647
1.652
1.647
1.623
1.593
1.588
1.603
1.603
1.608
1.672
1.76
1.852
1.945
2.048
2.16
2.234
2.258
2.287
2.307
2.287
2.229
2.155
2.087
2.014
1.906
1.808
1.755
1.706
1.657
1.628
1.628
1.652
1.652
1.647
1.672
1.691
1.686
1.667
1.657
1.667
1.662
1.632
1.637
1.662
1.667
1.652
1.642
1.657
1.676
1.657
1.647
1.672
1.681
1.676
1.662
1.667
1.686
1.667
1.647
1.657
1.672
1.667
1.657
1.662
1.686
1.696
1.676
1.686
1.706
1.711
1.696
1.686
1.691
1.696
1.672
1.657
1.676
1.691
1.691
1.686
1.696
1.72
1.716
1.696
1.706
1.72
1.716
1.701
1.701
1.72
1.72
1.696
1.706
1.73
1.735
1.73
1.725
1.745
1.76
1.74
1.73
1.75
1.76
1.745
1.735
1.745
1.764
1.755
1.74
1.755
1.774
1.769
1.755
1.755
1.769
1.764
1.74
1.74
1.76
1.764
1.75
1.75
1.764
1.779
1.76
1.755
1.769
1.779
1.76
1.74
1.745
1.76
1.745
1.725
1.735
1.755
1.75
1.74
1.74
1.755
1.755
1.725
1.725
1.74
1.735
1.72
1.706
1.72
1.725
1.701
1.691
1.711
1.716
1.706
1.686
1.691
1.706
1.686
1.667
1.672
1.686
1.681
1.667
1.667
1.681
1.676
1.652
1.657
1.676
1.672
1.652
1.642
1.652
1.662
1.632
1.618
1.637
1.652
1.647
1.647
1.662
1.681
1.667
1.652
1.662
1.676
1.667
1.652
1.652
1.676
1.672
1.647
1.652
1.676
1.681
1.667
1.657
1.672
1.676
1.652
1.642
1.662
1.672
1.662
1.652
1.667
1.696
1.681
1.667
1.676
1.691
1.676
1.662
1.662
1.681
1.676
1.652
1.652
1.676
1.681
1.672
1.667
1.681
1.691
1.662
1.652
1.672
1.681
1.672
1.657
1.667
1.681
1.667
1.652
1.667
1.686
1.681
1.662
1.662
1.676
1.672
1.642
1.647
1.662
1.667
1.647
1.642
1.667
1.676
1.657
1.652
1.672
1.676
1.667
1.652
1.662
1.676
1.657
1.632
1.647
1.662
1.662
1.652
1.657
1.676
1.672
1.652
1.657
1.676
1.676
1.662
1.657
1.672
1.681
1.657
1.652
1.672
1.681
1.672
1.662
1.676
1.696
1.686
1.672
1.691
1.706
1.706
1.696
1.706
1.73
1.735
1.716
1.725
1.755
1.755
1.745
1.735
1.75
1.75
1.72
1.711
1.725
1.74
1.73
1.716
1.716
1.72
1.696
1.672
1.676
1.681
1.667
1.647
1.647
1.672
1.667
1.647
1.652
1.672
1.667
1.652
1.642
1.657
1.662
1.642
1.637
1.657
1.662
1.647
1.632
1.632
1.637
1.608
1.579
1.579
1.579
1.564
1.554
1.574
1.632
1.686
1.745
1.862
2.009
2.126
2.224
2.297
2.37
2.4
2.366
2.317
2.263
2.18
2.072
1.96
1.877
1.804
1.716
1.647
1.618
1.613
1.598
1.593
1.613
1.652
1.657
1.637
1.637
1.647
1.642
1.623
1.613
1.628
1.637
1.613
1.613
1.637
1.642
1.632
1.618
1.623
1.642
1.628
1.613
1.623
1.642
1.637
1.632
1.637
1.657
1.652
1.628
1.632
1.652
1.652
1.637
1.632
1.652
1.657
1.632
1.632
1.652
1.662
1.652
1.637
1.647
1.667
1.652
1.637
1.652
1.672
1.672
1.662
1.667
1.691
1.686
1.662
1.667
1.686
1.686
1.676
1.676
1.696
1.706
1.686
1.686
1.711
1.72
1.716
1.706
1.72
1.735
1.72
1.706
1.72
1.735
1.725
1.706
1.711
1.73
1.725
1.711
1.72
1.745
1.75
1.74
1.74
1.755
1.76
1.735
1.725
1.74
1.75
1.745
1.735
1.745
1.755
1.735
1.716
1.73
1.74
1.73
1.716
1.72
1.74
1.735
1.711
1.716
1.73
1.72
1.711
1.701
1.72
1.725
1.701
1.696
1.716
1.72
1.706
1.691
1.696
1.711
1.686
1.667
1.676
1.686
1.676
1.662
1.662
1.676
1.672
1.642
1.647
1.657
1.652
1.637
1.632
1.642
1.642
1.618
1.618
1.642
1.652
1.647
1.642
1.647
1.662
1.637
1.618
1.637
1.647
1.642
1.628
1.632
1.652
1.647
1.628
1.632
1.657
1.657
1.647
1.642
1.667
1.676
1.652
1.647
1.667
1.676
1.662
1.652
1.667
1.681
1.657
1.642
1.657
1.672
1.662
1.652
1.652
1.672
1.662
1.637
1.642
1.662
1.662
1.652
1.647
1.667
1.676
1.652
1.652
1.672
1.676
1.662
1.647
1.652
1.667
1.647
1.628
1.642
1.662
1.652
1.642
1.647
1.672
1.667
1.647
1.652
1.672
1.662
1.647
1.642
1.657
1.662
1.637
1.632
1.652
1.657
1.652
1.647
1.657
1.667
1.647
1.628
1.647
1.657
1.652
1.637
1.642
1.662
1.652
1.632
1.637
1.662
1.662
1.642
1.642
1.662
1.667
1.642
1.642
1.662
1.672
1.667
1.657
1.672
1.686
1.667
1.657
1.676
1.696
1.691
1.681
1.691
1.711
1.706
1.691
1.706
1.725
1.73
1.725
1.725
1.745
1.755
1.73
1.725
1.74
1.74
1.72
1.711
1.72
1.735
1.716
1.696
1.711
1.72
1.706
1.691
1.686
1.701
1.686
1.662
1.657
1.672
1.662
1.642
1.632
1.647
1.652
1.628
1.628
1.652
1.657
1.647
1.637
1.647
1.662
1.632
1.618
1.623
1.623
1.603
1.574
1.564
1.574
1.559
1.544
1.569
1.628
1.696
1.784
1.896
2.048
2.175
2.258
2.331
2.4
2.419
2.395
2.336
2.273
2.195
2.072
1.955
1.877
1.804
1.72
1.652
1.613
1.608
1.593
1.584
1.613
1.652
1.662
1.652
1.652
1.662
1.652
1.618
1.603
1.618
1.628
1.623
1.618
1.628
1.647
1.628
1.618
1.637
1.647
1.637
1.618
1.623
1.642
1.628
1.608
1.618
1.642
1.642
1.632
1.632
1.652
1.657
1.632
1.632
1.652
1.662
1.647
1.637
1.647
1.662
1.647
1.637
1.657
1.667
1.662
1.657
1.662
1.686
1.676
1.662
1.667
1.686
1.681
1.672
1.672
1.686
1.691
1.672
1.672
1.696
1.706
1.701
1.691
1.706
1.72
1.706
1.691
1.716
1.73
1.72
1.706
1.711
1.73
1.725
1.701
1.711
1.735
1.735
1.73
1.73
1.75
1.755
1.73
1.73
1.755
1.76
1.745
1.73
1.74
1.755
1.73
1.72
1.735
1.745
1.735
1.72
1.725
1.74
1.725
1.701
1.706
1.72
1.716
1.701
1.701
1.725
1.73
1.701
1.696
1.716
1.72
1.711
1.706
1.72
1.73
1.706
1.691
1.701
1.711
1.696
1.681
1.681
1.701
1.691
1.662
1.672
1.686
1.676
1.657
1.647
1.662
1.657
1.628
1.628
1.647
1.652
1.642
1.637
1.652
1.672
1.647
1.637
1.657
1.667
1.657
1.642
1.647
1.662
1.652
1.628
1.637
1.657
1.657
1.642
1.642
1.662
1.667
1.642
1.647
1.672
1.681
1.667
1.662
1.676
1.686
1.667
1.647
1.667
1.676
1.667
1.652
1.662
1.681
1.672
1.652
1.657
1.676
1.672
1.662
1.657
1.676
1.676
1.652
1.657
1.676
1.676
1.667
1.657
1.667
1.681
1.657
1.647
1.667
1.676
1.667
1.657
1.667
1.686
1.672
1.647
1.652
1.662
1.657
1.642
1.642
1.662
1.672
1.647
1.652
1.676
1.686
1.672
1.662
1.672
1.681
1.657
1.642
1.657
1.667
1.657
1.647
1.647
1.672
1.652
1.632
1.647
1.667
1.667
1.657
1.652
1.672
1.672
1.652
1.647
1.667
1.676
1.662
1.652
1.662
1.672
1.652
1.642
1.662
1.676
1.672
1.667
1.676
1.701
1.696
1.676
1.691
1.716
1.711
1.701
1.706
1.735
1.74
1.725
1.73
1.76
1.764
1.755
1.745
1.755
1.764
1.74
1.725
1.74
1.745
1.735
1.716
1.72
1.735
1.716
1.686
1.686
1.696
1.681
1.662
1.657
1.672
1.667
1.637
1.637
1.657
1.667
1.657
1.652
1.667
1.681
1.657
1.652
1.667
1.676
1.662
1.642
1.642
1.642
1.613
1.574
1.564
1.569
1.554
1.544
1.559
1.618
1.686
1.76
1.887
2.043
2.18
2.283
2.366
2.434
2.468
2.424
2.366
2.307
2.224
2.107
1.984
1.891
1.818
1.73
1.652
1.628
1.618
1.613
1.603
1.618
1.662
1.676
1.657
1.662
1.672
1.662
1.632
1.613
1.623
1.632
1.608
1.593
1.613
1.628
1.628
1.623
1.637
1.657
1.647
1.623
1.632
1.647
1.637
1.623
1.623
1.642
1.642
1.623
1.628
1.652
1.662
1.652
1.647
1.662
1.672
1.647
1.637
1.657
1.667
1.662
1.652
1.662
1.681
1.672
1.652
1.662
1.676
1.672
1.657
1.662
1.686
1.691
1.672
1.681
1.711
1.716
1.706
1.706
1.72
1.73
1.701
1.696
1.716
1.73
1.725
1.716
1.72
1.745
1.73
1.711
1.72
1.74
1.73
1.72
1.716
1.74
1.74
1.716
1.725
1.75
1.755
1.745
1.735
1.755
1.764
1.74
1.73
1.745
1.755
1.75
1.735
1.745
1.764
1.75
1.73
1.74
1.76
1.755
1.74
1.735
1.75
1.745
1.72
1.72
1.74
1.735
1.72
1.716
1.73
1.745
1.72
1.711
1.725
1.73
1.72
1.706
1.711
1.725
1.711
1.686
1.696
1.701
1.686
1.667
1.657
1.672
1.667
1.642
1.647
1.667
1.672
1.662
1.657
1.672
1.681
1.652
1.642
1.667
1.676
1.667
1.652
1.662
1.676
1.657
1.642
1.652
1.667
1.662
1.652
1.652
1.676
1.676
1.652
1.657
1.681
1.681
1.672
1.667
1.681
1.691
1.667
1.657
1.676
1.681
1.672
1.662
1.667
1.686
1.676
1.657
1.672
1.686
1.681
1.662
1.657
1.672
1.667
1.642
1.642
1.667
1.672
1.667
1.667
1.686
1.701
1.676
1.667
1.676
1.681
1.672
1.662
1.667
1.686
1.667
1.652
1.662
1.676
1.667
1.652
1.652
1.672
1.672
1.647
1.657
1.681
1.681
1.672
1.667
1.676
1.686
1.657
1.647
1.667
1.676
1.667
1.657
1.672
1.686
1.672
1.652
1.662
1.676
1.667
1.652
1.657
1.681
1.681
1.667
1.681
1.701
1.706
1.696
1.686
1.696
1.701
1.676
1.672
1.691
1.701
1.696
1.696
1.716
1.74
1.735
1.725
1.745
1.769
1.764
1.755
1.755
1.769
1.764
1.735
1.735
1.75
1.745
1.735
1.725
1.735
1.735
1.706
1.691
1.701
1.706
1.686
1.667
1.676
1.691
1.672
1.652
1.662
1.681
1.672
1.662
1.662
1.681
1.676
1.652
1.652
1.672
1.672
1.657
1.647
1.662
1.662
1.637
1.623
1.632
1.623
1.598
1.574
1.574
1.593
1.593
1.613
1.691
1.799
1.901
1.999
2.102
2.204
2.268
2.287
2.302
2.312
2.273
2.199
2.111
2.033
1.945
1.828
1.735
1.681
1.642
1.603
1.584
1.598
1.632
1.637
1.642
1.667
1.686
1.676
1.652
1.647
1.662
1.652
1.628
1.632
1.652
1.652
1.637
1.632
1.652
1.662
1.642
1.637
1.662
1.672
1.662
1.652
1.662
1.676
1.652
1.637
1.652
1.667
1.662
1.652
1.657
1.681
1.676
1.657
1.662
1.681
1.681
1.667
1.662
1.681
1.691
1.672
1.667
1.686
1.696
1.691
1.681
1.696
1.72
1.706
1.691
1.706
1.72
1.716
1.696
1.701
1.72
1.716
1.696
1.701
1.72
1.725
1.716
1.711
1.73
1.74
1.72
1.72
1.745
1.76
1.755
1.745
1.75
1.764
1.745
1.73
1.75
1.769
1.764
1.755
1.76
1.779
1.779
1.755
1.755
1.774
1.764
1.75
1.745
1.764
1.769
1.745
1.74
1.755
1.764
1.755
1.745
1.75
1.764
1.745
1.725
1.74
1.755
1.75
1.735
1.73
1.75
1.745
1.716
1.716
1.735
1.735
1.725
1.72
1.735
1.74
1.711
1.706
1.72
1.72
1.706
1.686
1.691
1.706
1.686
1.667
1.681
1.701
1.686
1.667
1.662
1.676
1.672
1.647
1.647
1.672
1.672
1.662
1.657
1.681
1.686
1.662
1.662
1.681
1.681
1.667
1.657
1.672
1.686
1.662
1.647
1.662
1.676
1.672
1.662
1.667
1.686
1.681
1.657
1.662
1.686
1.686
1.676
1.672
1.691
1.701
1.676
1.672
1.696
1.701
1.691
1.681
1.686
1.706
1.691
1.676
1.696
1.706
1.701
1.686
1.686
1.701
1.686
1.657
1.657
1.676
1.676
1.667
1.667
1.686
1.696
1.672
1.667
1.691
1.691
1.681
1.667
1.676
1.691
1.672
1.657
1.672
1.686
1.681
1.672
1.681
1.706
1.701
1.681
1.691
1.716
1.72
1.711
1.706
1.72
1.725
1.701
1.706
1.73
1.745
1.74
1.73
1.75
1.769
1.755
1.74
1.75
1.764
1.755
1.74
1.745
1.76
1.75
1.72
1.72
1.735
1.725
1.706
1.701
1.706
1.706
1.672
1.662
1.676
1.672
1.657
1.647
1.657
1.672
1.657
1.642
1.662
1.676
1.672
1.652
1.652
1.672
1.662
1.642
1.647
1.662
1.657
1.642
1.628
1.632
1.628
1.593
1.584
1.603
1.623
1.642
1.681
1.764
1.862
1.931
2.004
2.092
2.16
2.19
2.195
2.185
2.17
2.111
2.019
1.95
1.887
1.808
1.725
1.667
1.642
1.618
1.584
1.584
1.623
1.647
1.652
1.652
1.672
1.686
1.657
1.637
1.647
1.657
1.642
1.632
1.637
1.652
1.647
1.623
1.632
1.652
1.652
1.642
1.642
1.662
1.667
1.642
1.642
1.662
1.667
1.657
1.647
1.657
1.672
1.657
1.642
1.662
1.676
1.672
1.657
1.662
1.681
1.676
1.657
1.667
1.691
1.686
1.667
1.657
1.672
1.681
1.657
1.657
1.681
1.696
1.696
1.696
1.711
1.725
1.706
1.691
1.706
1.716
1.711
1.696
1.706
1.73
1.725
1.711
1.72
1.74
1.735
1.725
1.725
1.74
1.745
1.725
1.73
1.755
1.76
1.75
1.74
1.75
1.76
1.735
1.72
1.735
1.75
1.75
1.735
1.74
1.76
1.75
1.73
1.735
1.75
1.745
1.73
1.725
1.745
1.75
1.725
1.725
1.745
1.75
1.735
1.725
1.74
1.755
1.725
1.706
1.716
1.725
1.716
1.701
1.706
1.725
1.716
1.691
1.691
1.706
1.696
1.676
1.667
1.681
1.676
1.647
1.642
1.662
1.662
1.652
1.647
1.657
1.672
1.647
1.632
1.647
1.657
1.647
1.632
1.632
1.652
1.642
1.623
1.637
1.657
1.652
1.637
1.632
1.652
1.652
1.628
1.628
1.647
1.652
1.642
1.637
1.657
1.676
1.657
1.647
1.662
1.676
1.672
1.652
1.652
1.667
1.652
1.632
1.647
1.662
1.657
1.647
1.647
1.672
1.672
1.642
1.642
1.657
1.667
1.657
1.647
1.667
1.681
1.657
1.647
1.667
1.681
1.672
1.662
1.662
1.681
1.667
1.642
1.642
1.662
1.652
1.642
1.637
1.662
1.662
1.642
1.647
1.667
1.667
1.657
1.647
1.662
1.676
1.652
1.642
1.652
1.667
1.657
1.647
1.662
1.686
1.676
1.662
1.676
1.701
1.701
1.691
1.691
1.711
1.716
1.696
1.701
1.73
1.74
1.73
1.725
1.735
1.75
1.72
1.706
1.716
1.72
1.706
1.686
1.686
1.701
1.686
1.662
1.667
1.686
1.672
1.652
1.647
1.657
1.652
1.623
1.613
1.632
1.632
1.623
1.613
1.628
1.642
1.628
1.618
1.637
1.647
1.642
1.632
1.632
1.642
1.618
1.584
1.569
1.569
1.549
1.535
1.54
1.584
1.637
1.696
1.799
1.935
2.063
2.16
2.239
2.312
2.351
2.326
2.283
2.243
2.175
2.077
1.965
1.877
1.808
1.72
1.637
1.603
1.593
1.584
1.579
1.588
1.623
1.637
1.623
1.623
1.647
1.642
1.623
1.603
1.613
1.623
1.593
1.579
1.603
1.618
1.613
1.603
1.613
1.637
1.632
1.613
1.623
1.632
1.628
1.613
1.608
1.628
1.632
1.613
1.613
1.637
1.642
1.632
1.628
1.637
1.647
1.623
1.613
1.632
1.647
1.637
1.632
1.642
1.662
1.652
1.632
1.642
1.657
1.652
1.642
1.647
1.672
1.676
1.657
1.662
1.681
1.691
1.676
1.667
1.681
1.696
1.676
1.667
1.686
1.706
1.701
1.691
1.701
1.72
1.711
1.691
1.701
1.72
1.72
1.706
1.701
1.716
1.72
1.696
1.701
1.725
1.725
1.711
1.701
1.706
1.711
1.691
1.686
1.716
1.735
1.74
1.73
1.745
1.769
1.755
1.725
1.73
1.74
1.725
1.711
1.711
1.735
1.73
1.706
1.706
1.725
1.725
1.711
1.701
1.716
1.73
1.706
1.691
1.706
1.711
1.701
1.676
1.676
1.691
1.672
1.647
1.652
1.662
1.652
1.642
1.637
1.657
1.652
1.628
1.628
1.652
1.652
1.642
1.628
1.647
1.657
1.637
1.628
1.647
1.657
1.652
1.642
1.647
1.672
1.657
1.632
1.642
1.657
1.652
1.642
1.637
1.662
1.657
1.632
1.637
1.657
1.662
1.652
1.642
1.657
1.672
1.652
1.652
1.676
1.686
1.676
1.657
1.662
1.672
1.652
1.628
1.637
1.657
1.657
1.647
1.647
1.672
1.672
1.647
1.642
1.662
1.662
1.647
1.642
1.657
1.667
1.647
1.637
1.657
1.667
1.657
1.647
1.657
1.676
1.662
1.642
1.652
1.667
1.662
1.652
1.647
1.662
1.657
1.637
1.642
1.672
1.676
1.672
1.667
1.686
1.701
1.676
1.667
1.691
1.701
1.696
1.686
1.706
1.735
1.73
1.716
1.725
1.74
1.74
1.73
1.73
1.75
1.75
1.72
1.716
1.73
1.72
1.701
1.681
1.686
1.691
1.657
1.642
1.662
1.672
1.657
1.642
1.647
1.662
1.642
1.623
1.632
1.647
1.647
1.642
1.647
1.667
1.662
1.637
1.637
1.652
1.642
1.613
1.593
1.584
1.584
1.544
1.53
1.544
1.569
1.598
1.642
1.74
1.877
1.989
2.102
2.229
2.331
2.385
2.4
2.395
2.375
2.312
2.199
2.102
2.019
1.921
1.813
1.725
1.681
1.647
1.598
1.579
1.603
1.623
1.632
1.632
1.647
1.662
1.632
1.603
1.608
1.623
1.623
1.613
1.618
1.642
1.637
1.613
1.618
1.632
1.632
1.623
1.613
1.628
1.642
1.623
1.618
1.637
1.647
1.642
1.628
1.632
1.647
1.632
1.613
1.628
1.647
1.642
1.628
1.632
1.662
1.657
1.637
1.642
1.662
1.662
1.647
1.642
1.657
1.667
1.642
1.637
1.657
1.672
1.667
1.657
1.672
1.696
1.681
1.672
1.686
1.706
1.701
1.686
1.691
1.711
1.706
1.681
1.686
1.706
1.711
1.706
1.701
1.725
1.735
1.716
1.706
1.725
1.735
1.725
1.711
1.72
1.74
1.725
1.716
1.735
1.755
1.745
1.73
1.725
1.745
1.74
1.716
1.716
1.735
1.735
1.72
1.716
1.725
1.735
1.706
1.696
1.711
1.716
1.706
1.696
1.711
1.735
1.725
1.706
1.72
1.735
1.73
1.711
1.706
1.716
1.711
1.676
1.676
1.696
1.696
1.681
1.676
1.696
1.701
1.672
1.662
1.681
1.686
1.667
1.647
1.647
1.657
1.637
1.618
1.637
1.657
1.657
1.647
1.652
1.672
1.667
1.637
1.632
1.647
1.647
1.637
1.632
1.652
1.667
1.647
1.642
1.662
1.676
1.667
1.657
1.667
1.681
1.657
1.637
1.647
1.662
1.657
1.647
1.657
1.681
1.681
1.657
1.662
1.676
1.676
1.662
1.652
1.672
1.676
1.657
1.652
1.667
1.672
1.657
1.642
1.652
1.672
1.657
1.642
1.662
1.681
1.672
1.652
1.647
1.662
1.657
1.632
1.632
1.657
1.662
1.657
1.657
1.676
1.691
1.667
1.662
1.676
1.681
1.672
1.657
1.667
1.681
1.662
1.642
1.662
1.676
1.676
1.667
1.676
1.701
1.701
1.676
1.681
1.706
1.711
1.701
1.701
1.725
1.74
1.725
1.725
1.745
1.75
1.735
1.72
1.725
1.74
1.725
1.706
1.72
1.735
1.73
1.716
1.711
1.725
1.711
1.681
1.676
1.691
1.686
1.672
1.662
1.676
1.681
1.652
1.642
1.657
1.667
1.657
1.642
1.657
1.672
1.657
1.637
1.657
1.672
1.662
1.637
1.632
1.637
1.613
1.569
1.554
1.559
1.559
1.559
1.588
1.667
1.764
1.862
1.994
2.146
2.273
2.356
2.41
2.454
2.463
2.414
2.331
2.253
2.16
2.043
1.921
1.823
1.76
1.686
1.618
1.598
1.613
1.618
1.623
1.637
1.667
1.681
1.657
1.647
1.652
1.647
1.632
1.618
1.632
1.647
1.632
1.613
1.628
1.637
1.628
1.613
1.618
1.642
1.642
1.623
1.632
1.652
1.657
1.642
1.632
1.647
1.652
1.623
1.623
1.647
1.657
1.652
1.637
1.642
1.657
1.632
1.618
1.632
1.652
1.657
1.652
1.667
1.691
1.691
1.672
1.676
1.691
1.686
1.676
1.672
1.691
1.696
1.676
1.676
1.701
1.711
1.701
1.691
1.706
1.72
1.701
1.681
1.696
1.716
1.716
1.711
1.72
1.74
1.74
1.711
1.716
1.73
1.725
1.711
1.706
1.72
1.735
1.716
1.716
1.745
1.755
1.745
1.735
1.745
1.764
1.745
1.73
1.74
1.755
1.745
1.73
1.73
1.755
1.745
1.72
1.73
1.75
1.75
1.735
1.725
1.735
1.735
1.706
1.701
1.72
1.725
1.716
1.706
1.72
1.735
1.72
1.706
1.716
1.72
1.706
1.686
1.686
1.701
1.691
1.662
1.667
1.681
1.676
1.667
1.662
1.676
1.681
1.657
1.652
1.672
1.672
1.662
1.652
1.662
1.681
1.662
1.652
1.667
1.681
1.676
1.667
1.667
1.686
1.672
1.652
1.662
1.681
1.676
1.662
1.657
1.672
1.676
1.652
1.647
1.672
1.676
1.672
1.657
1.676
1.691
1.672
1.657
1.672
1.681
1.676
1.657
1.662
1.681
1.672
1.652
1.662
1.681
1.686
1.676
1.672
1.691
1.696
1.667
1.657
1.676
1.676
1.662
1.657
1.672
1.691
1.672
1.657
1.667
1.681
1.672
1.657
1.657
1.672
1.667
1.642
1.652
1.672
1.672
1.657
1.657
1.676
1.681
1.657
1.652
1.672
1.676
1.667
1.662
1.676
1.696
1.676
1.667
1.686
1.706
1.691
1.676
1.676
1.701
1.691
1.676
1.696
1.73
1.745
1.74
1.74
1.76
1.76
1.73
1.725
1.745
1.75
1.74
1.73
1.75
1.764
1.74
1.72
1.73
1.73
1.711
1.691
1.686
1.701
1.691
1.662
1.672
1.686
1.672
1.657
1.647
1.662
1.662
1.637
1.642
1.667
1.672
1.667
1.657
1.672
1.681
1.662
1.642
1.652
1.652
1.628
1.598
1.588
1.593
1.569
1.544
1.564
1.613
1.662
1.73
1.833
1.965
2.082
2.155
2.234
2.307
2.336
2.326
2.287
2.243
2.185
2.077
1.97
1.891
1.813
1.73
1.657
1.623
1.618
1.603
1.593
1.623
1.662
1.672
1.667
1.662
1.672
1.667
1.632
1.628
1.652
1.662
1.652
1.642
1.657
1.667
1.647
1.637
1.657
1.672
1.667
1.657
1.662
1.681
1.667
1.637
1.637
1.652
1.647
1.637
1.642
1.667
1.672
1.647
1.652
1.672
1.676
1.667
1.657
1.676
1.691
1.667
1.657
1.681
1.696
1.691
1.681
1.686
1.711
1.706
1.686
1.696
1.716
1.711
1.701
1.701
1.72
1.725
1.701
1.701
1.725
1.73
1.725
1.716
1.73
1.745
1.725
1.72
1.745
1.76
1.75
1.735
1.735
1.755
1.745
1.725
1.735
1.755
1.755
1.75
1.755
1.774
1.774
1.75
1.745
1.764
1.769
1.76
1.75
1.764
1.779
1.755
1.74
1.75
1.76
1.75
1.73
1.735
1.755
1.74
1.725
1.735
1.76
1.755
1.74
1.735
1.75
1.75
1.72
1.725
1.75
1.755
1.74
1.73
1.74
1.75
1.725
1.706
1.716
1.725
1.711
1.691
1.691
1.706
1.691
1.667
1.676
1.691
1.686
1.676
1.672
1.691
1.696
1.667
1.672
1.691
1.696
1.681
1.672
1.681
1.691
1.667
1.647
1.662
1.672
1.662
1.652
1.662
1.686
1.676
1.652
1.667
1.686
1.686
1.672
1.676
1.701
1.706
1.681
1.686
1.706
1.706
1.691
1.681
1.696
1.711
1.691
1.686
1.701
1.716
1.706
1.696
1.701
1.72
1.701
1.681
1.686
1.696
1.681
1.667
1.662
1.686
1.686
1.667
1.672
1.691
1.701
1.691
1.681
1.696
1.706
1.681
1.672
1.696
1.711
1.701
1.691
1.696
1.711
1.701
1.681
1.696
1.72
1.72
1.711
1.716
1.74
1.745
1.72
1.725
1.745
1.745
1.735
1.725
1.74
1.755
1.73
1.72
1.74
1.75
1.75
1.75
1.76
1.779
1.764
1.74
1.745
1.755
1.74
1.716
1.701
1.711
1.706
1.672
1.667
1.681
1.681
1.662
1.652
1.667
1.686
1.662
1.657
1.672
1.681
1.672
1.662
1.672
1.691
1.676
1.657
1.667
1.681
1.667
1.647
1.632
1.642
1.637
1.608
1.623
1.667
1.711
1.76
1.823
1.916
1.994
2.033
2.072
2.121
2.146
2.131
2.097
2.063
2.023
1.945
1.857
1.804
1.76
1.701
1.647
1.623
1.632
1.632
1.623
1.642
1.676
1.686
1.676
1.667
1.681
1.686
1.662
1.652
1.672
1.686
1.681
1.667
1.672
1.691
1.672
1.647
1.657
1.672
1.667
1.657
1.657
1.681
1.681
1.657
1.662
1.691
1.696
1.691
1.681
1.696
1.701
1.681
1.667
1.681
1.691
1.681
1.672
1.681
1.706
1.701
1.686
1.696
1.716
1.711
1.701
1.706
1.73
1.735
1.716
1.72
1.74
1.735
1.72
1.706
1.72
1.73
1.706
1.696
1.725
1.745
1.745
1.74
1.755
1.774
1.755
1.735
1.745
1.764
1.755
1.745
1.745
1.769
1.769
1.745
1.745
1.769
1.774
1.764
1.755
1.774
1.784
1.76
1.75
1.769
1.779
1.769
1.755
1.755
1.769
1.75
1.73
1.745
1.764
1.76
1.755
1.755
1.774
1.769
1.74
1.735
1.75
1.75
1.735
1.725
1.745
1.755
1.725
1.72
1.735
1.74
1.725
1.706
1.711
1.725
1.711
1.686
1.696
1.711
1.706
1.686
1.681
1.696
1.691
1.662
1.662
1.681
1.681
1.672
1.662
1.676
1.686
1.657
1.647
1.667
1.672
1.657
1.647
1.657
1.681
1.667
1.652
1.667
1.686
1.676
1.662
1.662
1.676
1.672
1.642
1.647
1.667
1.672
1.667
1.662
1.681
1.691
1.667
1.657
1.676
1.686
1.676
1.657
1.672
1.691
1.681
1.662
1.676
1.691
1.686
1.672
1.672
1.691
1.691
1.662
1.667
1.686
1.686
1.676
1.667
1.686
1.696
1.667
1.657
1.681
1.691
1.681
1.672
1.676
1.696
1.686
1.672
1.686
1.701
1.701
1.691
1.691
1.711
1.711
1.686
1.696
1.716
1.72
1.711
1.706
1.725
1.735
1.711
1.711
1.73
1.745
1.735
1.725
1.73
1.745
1.72
1.696
1.701
1.716
1.701
1.681
1.676
1.696
1.686
1.652
1.652
1.667
1.662
1.647
1.642
1.657
1.667
1.642
1.632
1.647
1.662
1.647
1.632
1.642
1.662
1.642
1.623
1.632
1.637
1.623
1.593
1.584
1.593
1.584
1.564
1.579
1.623
1.672
1.73
1.808
1.921
2.023
2.077
2.131
2.19
2.214
2.195
2.151
2.102
2.048
1.955
1.852
1.789
1.745
1.681
1.628
1.598
1.603
1.598
1.588
1.608
1.647
1.657
1.652
1.642
1.652
1.652
1.623
1.613
1.632
1.637
1.632
1.618
1.628
1.647
1.628
1.613
1.628
1.637
1.628
1.613
1.613
1.632
1.628
1.608
1.613
1.637
1.642
1.637
1.637
1.657
1.667
1.642
1.632
1.657
1.657
1.642
1.632
1.642
1.662
1.647
1.632
1.647
1.667
1.662
1.652
1.652
1.676
1.676
1.652
1.662
1.691
1.691
1.686
1.681
1.696
1.706
1.676
1.667
1.686
1.696
1.691
1.681
1.696
1.716
1.706
1.691
1.701
1.711
1.706
1.691
1.696
1.716
1.716
1.696
1.706
1.725
1.725
1.716
1.716
1.725
1.73
1.711
1.711
1.735
1.745
1.735
1.725
1.735
1.75
1.725
1.701
1.716
1.73
1.725
1.711
1.711
1.73
1.725
1.701
1.701
1.716
1.711
1.696
1.681
1.696
1.706
1.681
1.676
1.696
1.706
1.691
1.676
1.686
1.696
1.676
1.652
1.667
1.676
1.672
1.652
1.652
1.667
1.657
1.628
1.623
1.637
1.632
1.618
1.608
1.632
1.647
1.623
1.623
1.642
1.647
1.637
1.623
1.628
1.642
1.623
1.608
1.623
1.637
1.632
1.628
1.632
1.652
1.647
1.623
1.632
1.652
1.647
1.637
1.632
1.647
1.657
1.632
1.628
1.647
1.657
1.647
1.637
1.647
1.667
1.647
1.632
1.652
1.667
1.657
1.637
1.632
1.647
1.642
1.618
1.623
1.642
1.642
1.637
1.637
1.662
1.672
1.647
1.637
1.657
1.657
1.647
1.632
1.637
1.652
1.628
1.613
1.628
1.647
1.647
1.642
1.647
1.667
1.667
1.642
1.647
1.667
1.667
1.657
1.652
1.667
1.672
1.647
1.642
1.662
1.672
1.662
1.662
1.681
1.706
1.696
1.691
1.706
1.72
1.716
1.701
1.706
1.72
1.716
1.696
1.701
1.72
1.716
1.696
1.681
1.686
1.686
1.652
1.642
1.657
1.662
1.647
1.632
1.642
1.652
1.632
1.613
1.628
1.647
1.642
1.628
1.637
1.657
1.647
1.623
1.628
1.637
1.632
1.618
1.603
1.608
1.603
1.559
1.54
1.549
1.544
1.544
1.554
1.613
1.696
1.779
1.887
2.028
2.16
2.248
2.302
2.336
2.361
2.331
2.258
2.19
2.121
2.023
1.921
1.828
1.764
1.701
1.623
1.588
1.593
1.603
1.603
1.608
1.628
1.652
1.632
1.613
1.618
1.618
1.603
1.584
1.588
1.618
1.613
1.593
1.603
1.623
1.613
1.598
1.598
1.613
1.623
1.603
1.598
1.618
1.628
1.618
1.618
1.632
1.647
1.628
1.613
1.628
1.637
1.632
1.618
1.618
1.637
1.628
1.608
1.618
1.642
1.642
1.632
1.637
1.657
1.662
1.637
1.637
1.657
1.662
1.652
1.642
1.657
1.676
1.662
1.647
1.667
1.681
1.672
1.667
1.672
1.691
1.681
1.662
1.667
1.686
1.686
1.672
1.667
1.686
1.696
1.681
1.686
1.711
1.716
1.706
1.696
1.711
1.72
1.706
1.696
1.711
1.73
1.73
1.72
1.725
1.745
1.74
1.711
1.716
1.73
1.725
1.706
1.696
1.711
1.711
1.686
1.681
1.701
1.711
1.701
1.691
1.701
1.716
1.691
1.672
1.686
1.701
1.696
1.681
1.686
1.706
1.701
1.676
1.676
1.696
1.686
1.676
1.672
1.686
1.686
1.652
1.647
1.662
1.662
1.647
1.628
1.637
1.647
1.618
1.608
1.628
1.647
1.642
1.632
1.637
1.662
1.657
1.637
1.642
1.657
1.647
1.628
1.628
1.642
1.647
1.628
1.628
1.647
1.652
1.642
1.637
1.647
1.662
1.642
1.628
1.642
1.657
1.652
1.642
1.647
1.667
1.657
1.632
1.637
1.657
1.652
1.642
1.637
1.657
1.662
1.637
1.637
1.662
1.667
1.652
1.642
1.657
1.667
1.647
1.632
1.647
1.662
1.652
1.637
1.642
1.662
1.652
1.637
1.647
1.667
1.662
1.647
1.642
1.657
1.657
1.632
1.628
1.652
1.657
1.652
1.647
1.662
1.676
1.657
1.642
1.657
1.667
1.657
1.637
1.642
1.657
1.647
1.623
1.632
1.652
1.657
1.647
1.652
1.676
1.676
1.652
1.652
1.676
1.686
1.681
1.672
1.686
1.706
1.686
1.667
1.681
1.686
1.681
1.676
1.691
1.72
1.725
1.716
1.735
1.755
1.75
1.725
1.716
1.725
1.72
1.696
1.691
1.711
1.716
1.701
1.686
1.691
1.696
1.667
1.652
1.667
1.676
1.662
1.647
1.652
1.672
1.657
1.632
1.632
1.647
1.647
1.637
1.632
1.657
1.662
1.642
1.642
1.662
1.662
1.642
1.623
1.613
1.608
1.564
1.535
1.549
1.574
1.598
1.642
1.735
1.857
1.97
2.077
2.195
2.302
2.356
2.366
2.356
2.341
2.278
2.17
2.067
1.994
1.901
1.808
1.725
1.676
1.647
1.603
1.584
1.608
1.632
1.642
1.647
1.662
1.676
1.662
1.628
1.623
1.632
1.623
1.608
1.603
1.623
1.632
1.608
1.613
1.637
1.647
1.642
1.637
1.652
1.667
1.637
1.623
1.637
1.647
1.637
1.628
1.637
1.657
1.652
1.632
1.647
1.667
1.662
1.652
1.647
1.667
1.672
1.642
1.647
1.667
1.672
1.667
1.657
1.676
1.691
1.667
1.657
1.672
1.691
1.686
1.672
1.672
1.691
1.681
1.662
1.676
1.696
1.696
1.691
1.691
1.716
1.725
1.701
1.706
1.725
1.73
1.725
1.716
1.725
1.74
1.72
1.711
1.725
1.735
1.725
1.711
1.72
1.745
1.735
1.716
1.73
1.75
1.755
1.745
1.745
1.764
1.76
1.725
1.72
1.74
1.745
1.725
1.716
1.73
1.745
1.73
1.716
1.735
1.745
1.735
1.72
1.72
1.735
1.72
1.696
1.701
1.72
1.716
1.701
1.696
1.711
1.716
1.686
1.691
1.711
1.716
1.706
1.696
1.706
1.711
1.681
1.662
1.667
1.672
1.662
1.652
1.657
1.676
1.662
1.637
1.647
1.667
1.657
1.642
1.632
1.652
1.657
1.637
1.637
1.662
1.662
1.647
1.637
1.657
1.667
1.642
1.637
1.652
1.662
1.652
1.637
1.647
1.667
1.657
1.642
1.652
1.667
1.662
1.647
1.647
1.662
1.662
1.642
1.647
1.672
1.672
1.662
1.652
1.657
1.667
1.642
1.632
1.647
1.662
1.657
1.647
1.657
1.676
1.662
1.642
1.647
1.657
1.652
1.637
1.637
1.662
1.662
1.637
1.632
1.647
1.647
1.632
1.628
1.642
1.657
1.632
1.628
1.647
1.662
1.647
1.632
1.637
1.652
1.637
1.623
1.632
1.652
1.647
1.632
1.637
1.657
1.657
1.632
1.632
1.652
1.657
1.642
1.637
1.652
1.667
1.642
1.637
1.652
1.667
1.662
1.647
1.652
1.672
1.652
1.632
1.642
1.657
1.657
1.642
1.642
1.662
1.662
1.642
1.647
1.672
1.676
1.672
1.667
1.686
1.696
1.676
1.667
1.686
1.691
1.686
1.681
1.701
1.73
1.725
1.716
1.735
1.764
1.76
1.74
1.735
1.745
1.74
1.711
1.706
1.725
1.72
1.711
1.701
1.711
1.72
1.696
1.686
1.701
1.711
1.696
1.681
1.681
1.696
1.676
1.647
1.652
1.662
1.652
1.632
1.632
1.657
1.662
1.642
1.647
1.662
1.662
1.642
1.628
1.628
1.618
1.574
1.544
1.549
1.554
1.549
1.554
1.593
1.672
1.745
1.838
1.979
2.136
2.258
2.341
2.41
2.458
2.454
2.395
2.331
2.263
2.165
2.043
1.935
1.852
1.779
1.686
1.628
1.618
1.613
1.608
1.608
1.632
1.667
1.662
1.647
1.652
1.652
1.628
1.603
1.593
1.608
1.603
1.579
1.579
1.603
1.608
1.608
1.608
1.632
1.652
1.632
1.623
1.637
1.642
1.628
1.618
1.623
1.642
1.637
1.623
1.637
1.657
1.657
1.642
1.642
1.652
1.647
1.618
1.618
1.642
1.647
1.642
1.637
1.662
1.676
1.662
1.657
1.681
1.686
1.676
1.662
1.672
1.696
1.681
1.667
1.681
1.691
1.691
1.676
1.681
1.701
1.706
1.686
1.691
1.716
1.716
1.711
1.701
1.716
1.73
1.706
1.701
1.72
1.735
1.73
1.72
1.73
1.745
1.725
1.706
1.72
1.74
1.74
1.73
1.73
1.755
1.75
1.73
1.73
1.745
1.745
1.73
1.725
1.74
1.745
1.716
1.706
1.725
1.74
1.73
1.716
1.73
1.745
1.735
1.711
1.72
1.735
1.725
1.72
1.72
1.745
1.735
1.706
1.706
1.72
1.716
1.691
1.676
1.686
1.696
1.672
1.672
1.691
1.701
1.696
1.686
1.696
1.711
1.691
1.662
1.672
1.681
1.672
1.652
1.652
1.667
1.667
1.642
1.647
1.667
1.667
1.657
1.652
1.672
1.681
1.662
1.657
1.672
1.681
1.672
1.662
1.667
1.681
1.662
1.647
1.657
1.676
1.672
1.662
1.667
1.691
1.691
1.672
1.676
1.691
1.686
1.672
1.662
1.676
1.681
1.647
1.637
1.657
1.667
1.657
1.647
1.657
1.681
1.667
1.652
1.667
1.686
1.681
1.667
1.662
1.681
1.676
1.647
1.647
1.672
1.676
1.667
1.657
1.672
1.681
1.652
1.647
1.672
1.681
1.667
1.657
1.667
1.686
1.672
1.647
1.657
1.676
1.672
1.662
1.662
1.676
1.672
1.647
1.652
1.672
1.667
1.652
1.647
1.662
1.676
1.657
1.647
1.667
1.676
1.672
1.662
1.667
1.681
1.667
1.647
1.657
1.667
1.657
1.642
1.647
1.667
1.667
1.647
1.657
1.681
1.681
1.672
1.657
1.667
1.672
1.642
1.642
1.667
1.686
1.681
1.681
1.696
1.716
1.701
1.681
1.691
1.711
1.701
1.691
1.696
1.725
1.73
1.716
1.725
1.755
1.764
1.76
1.76
1.774
1.784
1.755
1.745
1.76
1.764
1.75
1.735
1.745
1.76
1.735
1.711
1.72
1.73
1.72
1.701
1.696
1.711
1.696
1.667
1.667
1.676
1.672
1.657
1.647
1.662
1.672
1.652
1.652
1.672
1.681
1.672
1.662
1.667
1.681
1.652
1.618
1.613
1.608
1.584
1.559
1.554
1.584
1.608
1.642
1.73
1.862
1.994
2.116
2.234
2.351
2.429
2.449
2.444
2.434
2.375
2.278
2.16
2.063
1.975
1.857
1.755
1.701
1.667
1.632
1.613
1.623
1.652
1.667
1.657
1.667
1.681
1.672
1.647
1.623
1.632
1.637
1.613
1.613
1.632
1.642
1.632
1.623
1.632
1.647
1.628
1.608
1.618
1.637
1.632
1.628
1.637
1.662
1.657
1.637
1.642
1.667
1.667
1.657
1.652
1.672
1.686
1.667
1.662
1.681
1.691
1.681
1.667
1.681
1.696
1.681
1.667
1.686
1.706
1.701
1.686
1.686
1.706
1.696
1.676
1.681
1.706
1.711
1.701
1.696
1.716
1.725
1.701
1.696
1.716
1.725
1.72
1.706
1.716
1.735
1.725
1.711
1.73
1.745
1.74
1.73
1.735
1.764
1.76
1.735
1.735
1.75
1.75
1.735
1.73
1.75
1.76
1.735
1.73
1.75
1.76
1.745
1.735
1.74
1.755
1.735
1.716
1.73
1.75
1.74
1.725
1.725
1.74
1.735
1.716
1.72
1.735
1.735
1.72
1.716
1.735
1.74
1.711
1.706
1.725
1.735
1.725
1.711
1.72
1.74
1.72
1.696
1.711
1.72
1.706
1.686
1.691
1.716
1.711
1.686
1.691
1.711
1.716
1.701
1.696
1.711
1.706
1.672
1.657
1.672
1.676
1.672
1.662
1.672
1.691
1.681
1.672
1.686
1.706
1.696
1.681
1.681
1.701
1.691
1.667
1.672
1.691
1.696
1.686
1.681
1.701
1.711
1.686
1.681
1.701
1.706
1.691
1.676
1.681
1.701
1.681
1.667
1.681
1.701
1.696
1.681
1.686
1.706
1.701
1.676
1.676
1.696
1.691
1.676
1.667
1.686
1.696
1.672
1.672
1.691
1.696
1.686
1.676
1.686
1.706
1.686
1.672
1.691
1.706
1.696
1.686
1.681
1.696
1.686
1.657
1.662
1.681
1.681
1.672
1.672
1.691
1.691
1.662
1.652
1.667
1.672
1.667
1.657
1.672
1.696
1.681
1.672
1.686
1.706
1.701
1.691
1.696
1.716
1.711
1.686
1.696
1.72
1.725
1.716
1.716
1.745
1.755
1.735
1.74
1.764
1.779
1.769
1.755
1.764
1.779
1.76
1.745
1.76
1.774
1.769
1.75
1.745
1.76
1.745
1.711
1.711
1.725
1.716
1.701
1.691
1.706
1.701
1.672
1.657
1.672
1.672
1.662
1.652
1.667
1.686
1.667
1.652
1.667
1.681
1.676
1.662
1.672
1.691
1.681
1.652
1.647
1.652
1.632
1.608
1.598
1.623
1.647
1.667
1.735
1.843
1.94
2.019
2.082
2.155
2.209
2.209
2.195
2.18
2.146
2.077
1.989
1.916
1.857
1.774
1.691
1.652
1.637
1.618
1.603
1.608
1.642
1.667
1.652
1.652
1.676
1.681
1.676
1.667
1.676
1.691
1.667
1.652
1.662
1.667
1.657
1.647
1.657
1.681
1.681
1.667
1.676
1.696
1.686
1.667
1.657
1.672
1.676
1.652
1.652
1.676
1.691
1.691
1.681
1.691
1.706
1.681
1.662
1.681
1.691
1.686
1.676
1.681
1.701
1.696
1.676
1.686
1.706
1.706
1.696
1.696
1.72
1.735
1.72
1.725
1.75
1.755
1.745
1.73
1.74
1.755
1.735
1.72
1.74
1.755
1.755
1.745
1.75
1.774
1.764
1.74
1.75
1.769
1.769
1.76
1.76
1.774
1.774
1.75
1.75
1.769
1.774
1.764
1.755
1.769
1.784
1.764
1.755
1.769
1.784
1.779
1.764
1.764
1.779
1.764
1.735
1.74
1.76
1.755
1.745
1.75
1.774
1.779
1.76
1.764
1.779
1.784
1.769
1.755
1.755
1.769
1.74
1.725
1.74
1.75
1.74
1.725
1.73
1.75
1.73
1.701
1.706
1.72
1.711
1.691
1.681
1.696
1.696
1.667
1.667
1.686
1.691
1.676
1.667
1.681
1.701
1.681
1.662
1.672
1.681
1.672
1.657
1.662
1.681
1.676
1.662
1.676
1.701
1.696
1.686
1.681
1.696
1.696
1.667
1.662
1.681
1.691
1.686
1.681
1.696
1.711
1.691
1.676
1.696
1.711
1.706
1.696
1.701
1.72
1.706
1.681
1.686
1.701
1.696
1.681
1.676
1.696
1.706
1.681
1.681
1.706
1.706
1.696
1.681
1.696
1.711
1.691
1.681
1.701
1.711
1.696
1.676
1.672
1.686
1.672
1.642
1.652
1.672
1.676
1.672
1.672
1.696
1.701
1.676
1.672
1.686
1.691
1.676
1.662
1.676
1.696
1.676
1.672
1.696
1.716
1.716
1.706
1.711
1.735
1.725
1.696
1.706
1.725
1.725
1.72
1.725
1.75
1.76
1.735
1.74
1.76
1.76
1.745
1.73
1.745
1.76
1.735
1.72
1.735
1.745
1.735
1.716
1.711
1.72
1.701
1.667
1.672
1.681
1.676
1.662
1.657
1.676
1.681
1.652
1.652
1.672
1.672
1.662
1.652
1.657
1.672
1.647
1.632
1.642
1.647
1.632
1.603
1.593
1.598
1.579
1.554
1.564
1.598
1.637
1.681
1.764
1.887
2.004
2.087
2.175
2.268
2.317
2.317
2.292
2.263
2.204
2.092
1.984
1.901
1.823
1.74
1.667
1.628
1.623
1.603
1.584
1.603
1.642
1.652
1.652
1.652
1.667
1.662
1.628
1.618
1.637
1.637
1.628
1.623
1.642
1.662
1.642
1.632
1.652
1.662
1.647
1.632
1.632
1.652
1.642
1.623
1.632
1.657
1.657
1.647
1.647
1.667
1.667
1.637
1.637
1.662
1.667
1.662
1.657
1.672
1.686
1.662
1.647
1.662
1.676
1.672
1.657
1.662
1.676
1.667
1.652
1.672
1.691
1.691
1.681
1.681
1.706
1.711
1.686
1.681
1.701
1.706
1.691
1.686
1.701
1.72
1.701
1.696
1.716
1.73
1.725
1.711
1.72
1.745
1.74
1.72
1.73
1.75
1.75
1.735
1.73
1.745
1.745
1.716
1.716
1.74
1.745
1.735
1.73
1.75
1.764
1.74
1.72
1.735
1.745
1.735
1.725
1.73
1.745
1.735
1.711
1.725
1.74
1.74
1.725
1.72
1.73
1.725
1.696
1.696
1.72
1.72
1.711
1.701
1.716
1.725
1.701
1.686
1.696
1.701
1.691
1.672
1.676
1.691
1.676
1.652
1.662
1.672
1.667
1.652
1.647
1.667
1.667
1.642
1.642
1.662
1.667
1.657
1.647
1.662
1.676
1.647
1.632
1.647
1.662
1.652
1.637
1.642
1.667
1.657
1.637
1.652
1.667
1.672
1.657
1.652
1.672
1.676
1.647
1.647
1.672
1.672
1.662
1.652
1.672
1.691
1.672
1.662
1.681
1.691
1.676
1.662
1.672
1.686
1.672
1.657
1.667
1.681
1.676
1.662
1.657
1.676
1.672
1.642
1.642
1.667
1.667
1.662
1.652
1.672
1.686
1.662
1.652
1.672
1.681
1.667
1.642
1.647
1.667
1.652
1.632
1.642
1.667
1.667
1.657
1.657
1.672
1.672
1.637
1.637
1.657
1.662
1.652
1.642
1.657
1.672
1.657
1.652
1.672
1.691
1.686
1.676
1.686
1.701
1.691
1.672
1.681
1.696
1.696
1.686
1.696
1.725
1.735
1.72
1.725
1.75
1.75
1.74
1.73
1.74
1.75
1.725
1.711
1.72
1.725
1.711
1.686
1.686
1.696
1.676
1.657
1.662
1.676
1.672
1.657
1.652
1.672
1.672
1.642
1.642
1.662
1.667
1.652
1.642
1.657
1.667
1.642
1.632
1.647
1.652
1.632
1.613
1.608
1.613
1.588
1.554
1.554
1.574
1.584
1.608
1.667
1.779
1.896
2.004
2.136
2.263
2.351
2.395
2.405
2.405
2.366
2.273
2.165
2.072
1.975
1.862
1.764
1.696
1.657
1.608
1.569
1.579
1.608
1.623
1.628
1.642
1.662
1.657
1.618
1.613
1.628
1.628
1.618
1.613
1.632
1.642
1.623
1.608
1.628
1.632
1.618
1.603
1.613
1.637
1.628
1.613
1.632
1.647
1.647
1.632
1.632
1.652
1.647
1.618
1.618
1.637
1.637
1.628
1.623
1.637
1.657
1.637
1.637
1.657
1.672
1.662
1.647
1.657
1.676
1.662
1.642
1.657
1.681
1.676
1.667
1.667
1.686
1.686
1.667
1.672
1.691
1.691
1.681
1.676
1.691
1.701
1.681
1.672
1.691
1.706
1.701
1.696
1.711
1.73
1.716
1.701
1.711
1.73
1.73
1.716
1.716
1.735
1.73
1.706
1.706
1.725
1.73
1.716
1.711
1.73
1.745
1.725
1.716
1.73
1.74
1.73
1.711
1.72
1.735
1.72
1.696
1.706
1.72
1.716
1.696
1.696
1.716
1.711
1.686
1.686
1.706
1.706
1.696
1.686
1.701
1.711
1.691
1.686
1.701
1.711
1.696
1.681
1.686
1.696
1.676
1.647
1.657
1.667
1.662
1.647
1.642
1.662
1.657
1.628
1.628
1.652
1.652
1.642
1.637
1.657
1.672
1.642
1.637
1.652
1.662
1.652
1.637
1.642
1.662
1.647
1.632
1.647
1.667
1.657
1.642
1.637
1.657
1.652
1.628
1.632
1.657
1.662
1.652
1.647
1.662
1.676
1.652
1.642
1.662
1.667
1.662
1.652
1.662
1.676
1.662
1.642
1.652
1.667
1.657
1.642
1.642
1.662
1.662
1.637
1.647
1.672
1.676
1.667
1.662
1.681
1.686
1.657
1.647
1.662
1.667
1.662
1.647
1.652
1.667
1.647
1.632
1.647
1.662
1.662
1.652
1.652
1.676
1.672
1.642
1.637
1.652
1.647
1.637
1.632
1.647
1.662
1.637
1.632
1.647
1.657
1.642
1.632
1.647
1.667
1.657
1.647
1.662
1.686
1.681
1.672
1.672
1.696
1.686
1.662
1.662
1.691
1.696
1.696
1.696
1.716
1.73
1.711
1.701
1.72
1.735
1.73
1.72
1.73
1.76
1.745
1.725
1.73
1.74
1.725
1.701
1.696
1.711
1.701
1.672
1.672
1.691
1.681
1.662
1.647
1.657
1.662
1.637
1.632
1.652
1.667
1.657
1.647
1.657
1.672
1.652
1.628
1.637
1.657
1.642
1.623
1.613
1.613
1.588
1.544
1.535
1.544
1.559
1.574
1.628
1.735
1.867
1.984
2.121
2.268
2.375
2.434
2.449
2.449
2.424
2.341
2.229
2.131
2.038
1.926
1.813
1.735
1.691
1.647
1.593
1.584
1.608
1.623
1.628
1.637
1.662
1.667
1.632
1.618
1.628
1.632
1.623
1.608
1.623
1.642
1.623
1.608
1.618
1.632
1.628
1.618
1.618
1.632
1.623
1.598
1.603
1.623
1.628
1.623
1.623
1.647
1.662
1.647
1.642
1.657
1.662
1.642
1.628
1.632
1.647
1.632
1.618
1.632
1.657
1.657
1.647
1.657
1.676
1.676
1.652
1.657
1.676
1.676
1.667
1.662
1.681
1.696
1.676
1.676
1.701
1.711
1.706
1.696
1.706
1.725
1.706
1.691
1.706
1.716
1.711
1.696
1.701
1.716
1.711
1.686
1.696
1.716
1.725
1.716
1.716
1.735
1.745
1.72
1.72
1.735
1.745
1.73
1.716
1.72
1.74
1.72
1.706
1.72
1.74
1.73
1.72
1.72
1.735
1.73
1.706
1.706
1.725
1.725
1.711
1.701
1.72
1.725
1.701
1.696
1.711
1.72
1.706
1.696
1.706
1.72
1.696
1.681
1.691
1.706
1.696
1.681
1.686
1.706
1.701
1.681
1.686
1.701
1.691
1.672
1.662
1.676
1.672
1.647
1.637
1.657
1.667
1.657
1.647
1.657
1.676
1.662
1.647
1.662
1.672
1.667
1.647
1.647
1.662
1.652
1.628
1.632
1.657
1.657
1.652
1.652
1.667
1.676
1.652
1.647
1.667
1.672
1.662
1.647
1.662
1.676
1.662
1.647
1.662
1.681
1.672
1.662
1.667
1.686
1.672
1.642
1.642
1.662
1.662
1.652
1.647
1.672
1.681
1.657
1.647
1.667
1.676
1.662
1.647
1.662
1.681
1.662
1.647
1.657
1.672
1.662
1.647
1.652
1.672
1.662
1.637
1.647
1.667
1.667
1.652
1.647
1.662
1.667
1.642
1.642
1.667
1.672
1.662
1.652
1.667
1.681
1.662
1.647
1.657
1.667
1.657
1.642
1.647
1.672
1.667
1.647
1.652
1.672
1.676
1.667
1.657
1.672
1.672
1.642
1.637
1.662
1.667
1.657
1.652
1.667
1.686
1.676
1.662
1.681
1.701
1.696
1.676
1.681
1.701
1.701
1.681
1.701
1.725
1.735
1.725
1.725
1.745
1.75
1.725
1.72
1.745
1.755
1.75
1.74
1.745
1.76
1.73
1.706
1.711
1.716
1.696
1.672
1.667
1.686
1.676
1.652
1.657
1.672
1.672
1.662
1.657
1.676
1.681
1.657
1.652
1.672
1.676
1.667
1.657
1.662
1.672
1.642
1.613
1.613
1.608
1.584
1.559
1.559
1.588
1.608
1.628
1.706
1.823
1.94
2.043
2.146
2.258
2.331
2.356
2.366
2.366
2.326
2.243
2.136
2.048
1.965
1.852
1.75
1.701
1.667
1.632
1.608
1.613
1.642
1.647
1.642
1.662
1.681
1.676
1.657
1.647
1.657
1.657
1.628
1.623
1.642
1.647
1.637
1.628
1.642
1.657
1.637
1.628
1.652
1.667
1.667
1.652
1.657
1.681
1.676
1.652
1.652
1.667
1.657
1.642
1.632
1.652
1.662
1.642
1.642
1.667
1.676
1.672
1.662
1.676
1.696
1.676
1.667
1.686
1.701
1.691
1.676
1.681
1.706
1.701
1.676
1.686
1.706
1.706
1.696
1.691
1.711
1.72
1.691
1.696
1.72
1.73
1.725
1.716
1.73
1.745
1.725
1.711
1.72
1.735
1.735
1.725
1.73
1.755
1.755
1.73
1.74
1.764
1.764
1.75
1.745
1.76
1.764
1.74
1.74
1.755
1.76
1.75
1.735
1.745
1.764
1.75
1.735
1.75
1.764
1.755
1.74
1.735
1.75
1.735
1.701
1.706
1.72
1.72
1.711
1.716
1.735
1.745
1.72
1.72
1.735
1.735
1.72
1.706
1.72
1.735
1.716
1.701
1.716
1.725
1.716
1.696
1.691
1.701
1.686
1.657
1.662
1.681
1.681
1.667
1.667
1.686
1.691
1.667
1.667
1.686
1.691
1.686
1.676
1.691
1.701
1.676
1.657
1.667
1.681
1.672
1.657
1.667
1.686
1.681
1.662
1.676
1.701
1.701
1.686
1.686
1.706
1.711
1.681
1.676
1.691
1.691
1.676
1.667
1.676
1.696
1.681
1.672
1.691
1.701
1.691
1.676
1.681
1.701
1.691
1.662
1.672
1.686
1.681
1.672
1.672
1.691
1.691
1.667
1.672
1.696
1.696
1.681
1.667
1.676
1.691
1.667
1.652
1.672
1.681
1.672
1.657
1.667
1.686
1.681
1.662
1.672
1.691
1.691
1.681
1.676
1.691
1.686
1.657
1.652
1.676
1.681
1.672
1.662
1.676
1.691
1.672
1.662
1.676
1.696
1.691
1.676
1.686
1.706
1.701
1.681
1.691
1.716
1.716
1.711
1.711
1.735
1.74
1.716
1.711
1.725
1.73
1.725
1.72
1.735
1.76
1.74
1.735
1.755
1.769
1.76
1.74
1.74
1.755
1.73
1.701
1.706
1.716
1.706
1.681
1.672
1.681
1.681
1.652
1.647
1.672
1.681
1.676
1.672
1.686
1.701
1.681
1.662
1.667
1.676
1.662
1.642
1.642
1.652
1.637
1.608
1.613
1.628
1.613
1.598
1.603
1.637
1.681
1.72
1.808
1.926
2.023
2.097
2.155
2.214
2.253
2.229
2.19
2.155
2.102
2.019
1.926
1.848
1.789
1.716
1.647
1.628
1.632
1.632
1.628
1.642
1.676
1.691
1.672
1.667
1.676
1.672
1.662
1.647
1.657
1.672
1.642
1.632
1.647
1.657
1.652
1.637
1.652
1.676
1.667
1.647
1.657
1.676
1.672
1.657
1.657
1.672
1.676
1.652
1.652
1.676
1.676
1.667
1.657
1.672
1.686
1.667
1.662
1.681
1.701
1.696
1.681
1.691
1.711
1.696
1.672
1.676
1.696
1.691
1.686
1.686
1.711
1.716
1.696
1.696
1.716
1.72
1.706
1.701
1.716
1.73
1.711
1.711
1.73
1.745
1.73
1.716
1.725
1.74
1.725
1.701
1.716
1.74
1.74
1.735
1.735
1.755
1.76
1.735
1.735
1.75
1.75
1.735
1.725
1.745
1.76
1.735
1.73
1.745
1.76
1.755
1.74
1.745
1.76
1.745
1.72
1.73
1.745
1.735
1.716
1.706
1.725
1.725
1.701
1.706
1.725
1.735
1.73
1.72
1.735
1.745
1.72
1.701
1.711
1.72
1.706
1.691
1.696
1.711
1.696
1.672
1.681
1.696
1.691
1.681
1.676
1.691
1.686
1.657
1.657
1.672
1.667
1.652
1.637
1.647
1.657
1.637
1.632
1.652
1.662
1.657
1.647
1.657
1.681
1.672
1.652
1.662
1.676
1.667
1.657
1.652
1.667
1.662
1.632
1.637
1.662
1.672
1.667
1.662
1.686
1.701
1.676
1.667
1.681
1.691
1.676
1.662
1.662
1.681
1.672
1.652
1.667
1.686
1.676
1.667
1.667
1.681
1.681
1.657
1.662
1.681
1.681
1.667
1.662
1.676
1.686
1.662
1.652
1.672
1.676
1.662
1.647
1.647
1.662
1.647
1.623
1.637
1.667
1.667
1.657
1.657
1.676
1.676
1.647
1.642
1.657
1.662
1.647
1.642
1.662
1.676
1.657
1.647
1.667
1.676
1.667
1.657
1.672
1.696
1.681
1.662
1.672
1.691
1.686
1.672
1.672
1.696
1.706
1.686
1.696
1.72
1.725
1.72
1.716
1.735
1.745
1.72
1.706
1.72
1.725
1.716
1.696
1.696
1.701
1.681
1.652
1.662
1.676
1.667
1.652
1.647
1.667
1.662
1.632
1.632
1.652
1.652
1.642
1.637
1.652
1.667
1.642
1.632
1.652
1.662
1.647
1.623
1.618
1.618
1.588
1.554
1.554
1.559
1.559
1.564
1.598
1.676
1.76
1.838
1.955
2.087
2.19
2.253
2.297
2.331
2.341
2.283
2.219
2.155
2.077
1.975
1.867
1.789
1.73
1.657
1.593
1.579
1.593
1.598
1.603
1.623
1.662
1.667
1.637
1.628
1.637
1.628
1.608
1.593
1.613
1.628
1.608
1.603
1.628
1.637
1.628
1.613
1.623
1.642
1.632
1.618
1.632
1.647
1.642
1.632
1.637
1.657
1.652
1.628
1.637
1.652
1.657
1.642
1.632
1.647
1.652
1.632
1.623
1.642
1.652
1.652
1.647
1.652
1.672
1.662
1.642
1.657
1.676
1.672
1.662
1.667
1.686
1.686
1.662
1.672
1.691
1.691
1.681
1.672
1.691
1.701
1.681
1.672
1.691
1.701
1.696
1.686
1.701
1.72
1.711
1.696
1.711
1.73
1.725
1.716
1.711
1.725
1.725
1.701
1.706
1.725
1.73
1.72
1.711
1.73
1.735
1.711
1.701
1.72
1.725
1.711
1.701
1.706
1.72
1.706
1.686
1.706
1.725
1.72
1.706
1.706
1.72
1.716
1.686
1.686
1.706
1.701
1.686
1.686
1.706
1.72
1.691
1.681
1.696
1.701
1.686
1.672
1.672
1.686
1.667
1.647
1.657
1.667
1.657
1.642
1.642
1.662
1.657
1.628
1.632
1.652
1.652
1.642
1.632
1.652
1.662
1.632
1.628
1.642
1.652
1.647
1.637
1.642
1.662
1.642
1.628
1.642
1.662
1.657
1.642
1.642
1.662
1.657
1.632
1.637
1.657
1.657
1.642
1.642
1.662
1.676
1.652
1.647
1.667
1.676
1.667
1.652
1.657
1.672
1.652
1.637
1.652
1.672
1.672
1.657
1.657
1.676
1.667
1.637
1.637
1.657
1.652
1.642
1.637
1.657
1.672
1.657
1.652
1.672
1.676
1.667
1.652
1.662
1.676
1.652
1.632
1.647
1.667
1.662
1.652
1.652
1.667
1.657
1.632
1.632
1.647
1.647
1.637
1.632
1.657
1.676
1.657
1.652
1.672
1.681
1.667
1.657
1.667
1.681
1.662
1.647
1.667
1.691
1.696
1.686
1.696
1.72
1.716
1.696
1.711
1.735
1.735
1.725
1.72
1.73
1.74
1.711
1.701
1.72
1.725
1.711
1.696
1.706
1.72
1.696
1.667
1.672
1.676
1.667
1.647
1.647
1.662
1.657
1.632
1.632
1.652
1.647
1.632
1.628
1.642
1.652
1.632
1.628
1.652
1.657
1.642
1.618
1.618
1.618
1.588
1.559
1.564
1.574
1.579
1.593
1.652
1.755
1.862
1.965
2.102
2.234
2.322
2.37
2.395
2.4
2.37
2.283
2.199
2.121
2.023
1.916
1.813
1.745
1.696
1.628
1.579
1.584
1.598
1.613
1.623
1.642
1.672
1.662
1.632
1.623
1.628
1.623
1.608
1.603
1.623
1.637
1.613
1.613
1.632
1.642
1.637
1.628
1.642
1.657
1.637
1.618
1.632
1.642
1.632
1.618
1.623
1.642
1.637
1.618
1.632
1.657
1.662
1.652
1.652
1.672
1.681
1.657
1.647
1.662
1.662
1.647
1.642
1.657
1.681
1.667
1.657
1.672
1.691
1.681
1.667
1.672
1.691
1.681
1.662
1.667
1.691
1.691
1.686
1.681
1.701
1.711
1.691
1.691
1.72
1.735
1.725
1.716
1.725
1.74
1.716
1.701
1.716
1.73
1.725
1.716
1.72
1.74
1.735
1.711
1.716
1.735
1.74
1.73
1.73
1.755
1.76
1.735
1.73
1.745
1.755
1.735
1.72
1.725
1.74
1.72
1.706
1.72
1.73
1.72
1.706
1.706
1.725
1.72
1.696
1.706
1.725
1.725
1.716
1.711
1.72
1.72
1.686
1.676
1.696
1.706
1.691
1.676
1.686
1.696
1.672
1.657
1.667
1.676
1.667
1.652
1.657
1.681
1.676
1.652
1.657
1.672
1.672
1.662
1.662
1.676
1.686
1.662
1.657
1.672
1.676
1.667
1.657
1.667
1.686
1.672
1.662
1.681
1.696
1.686
1.667
1.667
1.686
1.676
1.652
1.662
1.681
1.681
1.672
1.667
1.681
1.686
1.657
1.657
1.681
1.686
1.676
1.662
1.676
1.691
1.676
1.662
1.676
1.686
1.681
1.667
1.672
1.691
1.681
1.657
1.662
1.681
1.676
1.667
1.667
1.686
1.696
1.676
1.676
1.691
1.691
1.676
1.662
1.672
1.681
1.662
1.647
1.667
1.686
1.681
1.672
1.681
1.696
1.686
1.657
1.667
1.686
1.681
1.672
1.667
1.681
1.686
1.667
1.662
1.686
1.701
1.696
1.686
1.701
1.72
1.701
1.686
1.696
1.706
1.696
1.686
1.696
1.716
1.716
1.701
1.711
1.73
1.73
1.72
1.716
1.74
1.75
1.73
1.73
1.75
1.76
1.745
1.73
1.735
1.74
1.711
1.691
1.701
1.706
1.691
1.672
1.667
1.681
1.672
1.647
1.657
1.676
1.676
1.662
1.657
1.676
1.681
1.652
1.647
1.667
1.667
1.657
1.642
1.647
1.657
1.623
1.593
1.593
1.593
1.579
1.564
1.584
1.637
1.686
1.75
1.862
1.994
2.097
2.175
2.243
2.307
2.326
2.287
2.248
2.204
2.126
2.028
1.926
1.848
1.774
1.686
1.623
1.603
1.608
1.603
1.603
1.632
1.672
1.676
1.657
1.662
1.672
1.657
1.632
1.628
1.642
1.647
1.623
1.623
1.642
1.652
1.647
1.642
1.657
1.672
1.657
1.647
1.662
1.672
1.672
1.657
1.667
1.686
1.676
1.652
1.657
1.672
1.667
1.652
1.642
1.662
1.667
1.647
1.652
1.676
1.686
1.686
1.681
1.696
1.716
1.696
1.686
1.701
1.706
1.701
1.686
1.691
1.716
1.706
1.686
1.691
1.711
1.706
1.696
1.691
1.716
1.72
1.701
1.706
1.73
1.74
1.73
1.72
1.735
1.75
1.725
1.72
1.74
1.76
1.755
1.745
1.75
1.769
1.75
1.725
1.73
1.75
1.745
1.73
1.73
1.755
1.76
1.735
1.73
1.75
1.75
1.735
1.725
1.735
1.75
1.725
1.716
1.735
1.75
1.74
1.725
1.73
1.745
1.735
1.706
1.716
1.73
1.73
1.716
1.716
1.74
1.74
1.711
1.711
1.725
1.725
1.706
1.691
1.701
1.716
1.691
1.676
1.686
1.691
1.681
1.662
1.667
1.686
1.676
1.657
1.667
1.686
1.681
1.662
1.657
1.672
1.672
1.647
1.652
1.672
1.681
1.676
1.676
1.691
1.701
1.672
1.657
1.672
1.681
1.672
1.657
1.667
1.686
1.681
1.667
1.681
1.696
1.691
1.672
1.667
1.686
1.686
1.662
1.662
1.686
1.691
1.681
1.676
1.686
1.696
1.667
1.652
1.672
1.676
1.672
1.662
1.672
1.696
1.681
1.662
1.676
1.696
1.691
1.676
1.672
1.686
1.686
1.657
1.657
1.681
1.681
1.667
1.657
1.676
1.691
1.667
1.657
1.672
1.686
1.676
1.662
1.672
1.691
1.676
1.657
1.667
1.686
1.681
1.662
1.657
1.676
1.672
1.647
1.647
1.667
1.672
1.662
1.657
1.676
1.691
1.672
1.667
1.691
1.701
1.696
1.681
1.686
1.706
1.696
1.681
1.701
1.73
1.74
1.735
1.735
1.755
1.75
1.716
1.711
1.725
1.725
1.716
1.706
1.73
1.745
1.72
1.701
1.716
1.716
1.701
1.681
1.681
1.691
1.672
1.647
1.657
1.672
1.667
1.652
1.657
1.681
1.681
1.657
1.657
1.672
1.667
1.652
1.637
1.647
1.657
1.632
1.618
1.632
1.632
1.603
1.574
1.569
1.584
1.574
1.579
1.637
1.73
1.828
1.931
2.053
2.18
2.263
2.302
2.331
2.351
2.326
2.263
2.185
2.111
2.028
1.911
1.808
1.75
1.696
1.637
1.598
1.593
1.618
1.618
1.618
1.647
1.676
1.667
1.652
1.642
1.652
1.642
1.618
1.623
1.642
1.647
1.642
1.632
1.642
1.657
1.637
1.632
1.652
1.662
1.652
1.637
1.642
1.657
1.642
1.623
1.632
1.657
1.657
1.647
1.652
1.672
1.672
1.642
1.647
1.667
1.676
1.667
1.657
1.672
1.681
1.657
1.647
1.667
1.681
1.672
1.657
1.672
1.691
1.681
1.662
1.672
1.691
1.681
1.672
1.676
1.701
1.706
1.686
1.696
1.72
1.725
1.716
1.706
1.72
1.725
1.701
1.691
1.711
1.72
1.711
1.701
1.711
1.73
1.72
1.706
1.72
1.74
1.74
1.735
1.735
1.75
1.74
1.711
1.701
1.716
1.716
1.701
1.696
1.716
1.725
1.711
1.701
1.72
1.725
1.716
1.706
1.711
1.735
1.72
1.701
1.716
1.73
1.725
1.706
1.701
1.716
1.716
1.691
1.691
1.711
1.711
1.696
1.681
1.696
1.706
1.681
1.672
1.691
1.706
1.691
1.676
1.676
1.691
1.667
1.647
1.662
1.676
1.672
1.657
1.657
1.676
1.672
1.637
1.637
1.652
1.652
1.642
1.637
1.662
1.681
1.667
1.662
1.681
1.686
1.676
1.662
1.672
1.686
1.667
1.647
1.667
1.681
1.681
1.667
1.672
1.696
1.696
1.672
1.672
1.691
1.686
1.672
1.662
1.676
1.686
1.662
1.657
1.676
1.691
1.681
1.672
1.681
1.701
1.686
1.667
1.676
1.696
1.686
1.672
1.667
1.686
1.681
1.657
1.667
1.681
1.686
1.672
1.662
1.676
1.686
1.662
1.657
1.676
1.681
1.672
1.662
1.676
1.696
1.681
1.662
1.672
1.686
1.681
1.672
1.672
1.691
1.686
1.657
1.657
1.676
1.676
1.667
1.662
1.681
1.686
1.662
1.662
1.686
1.696
1.691
1.681
1.691
1.711
1.696
1.681
1.691
1.706
1.706
1.696
1.701
1.73
1.74
1.716
1.725
1.74
1.74
1.725
1.72
1.735
1.745
1.725
1.72
1.745
1.755
1.74
1.72
1.725
1.735
1.706
1.681
1.686
1.691
1.681
1.667
1.662
1.681
1.672
1.647
1.652
1.676
1.676
1.662
1.657
1.672
1.676
1.652
1.647
1.672
1.672
1.652
1.628
1.623
1.628
1.593
1.559
1.564
1.574
1.574
1.593
1.647
1.755
1.857
1.955
2.077
2.199
2.283
2.326
2.346
2.351
2.326
2.243
2.155
2.082
1.994
1.891
1.799
1.735
1.696
1.637
1.598
1.603
1.623
1.632
1.632
1.647
1.672
1.662
1.628
1.623
1.642
1.642
1.632
1.632
1.652
1.662
1.637
1.628
1.642
1.642
1.632
1.628
1.637
1.657
1.642
1.628
1.647
1.667
1.657
1.642
1.637
1.657
1.652
1.628
1.632
1.652
1.657
1.657
1.657
1.681
1.691
1.667
1.662
1.681
1.686
1.681
1.667
1.681
1.701
1.686
1.667
1.681
1.696
1.691
1.681
1.686
1.711
1.706
1.686
1.696
1.716
1.716
1.706
1.706
1.725
1.735
1.711
1.706
1.725
1.73
1.72
1.711
1.716
1.735
1.72
1.711
1.735
1.755
1.75
1.74
1.74
1.76
1.75
1.725
1.72
1.73
1.725
1.716
1.711
1.735
1.74
1.716
1.711
1.735
1.745
1.74
1.735
1.745
1.76
1.74
1.725
1.74
1.745
1.73
1.711
1.711
1.725
1.72
1.696
1.706
1.725
1.72
1.711
1.701
1.716
1.72
1.691
1.686
1.711
1.716
1.706
1.691
1.696
1.711
1.686
1.667
1.676
1.686
1.676
1.657
1.657
1.676
1.672
1.652
1.662
1.681
1.676
1.662
1.657
1.676
1.681
1.657
1.647
1.667
1.667
1.657
1.647
1.662
1.676
1.657
1.642
1.662
1.681
1.676
1.667
1.667
1.691
1.681
1.657
1.662
1.676
1.672
1.657
1.652
1.667
1.676
1.652
1.652
1.676
1.686
1.681
1.672
1.681
1.696
1.672
1.652
1.667
1.681
1.676
1.667
1.672
1.691
1.681
1.657
1.662
1.681
1.676
1.662
1.657
1.676
1.681
1.657
1.652
1.676
1.676
1.662
1.652
1.662
1.681
1.662
1.647
1.662
1.676
1.667
1.657
1.662
1.681
1.676
1.657
1.662
1.681
1.672
1.652
1.642
1.657
1.662
1.637
1.637
1.662
1.667
1.667
1.662
1.676
1.691
1.672
1.657
1.672
1.681
1.676
1.667
1.676
1.701
1.701
1.686
1.706
1.735
1.735
1.72
1.716
1.73
1.735
1.706
1.701
1.725
1.73
1.725
1.72
1.735
1.75
1.725
1.706
1.716
1.716
1.691
1.667
1.662
1.676
1.662
1.637
1.647
1.667
1.667
1.662
1.657
1.672
1.672
1.642
1.632
1.652
1.657
1.647
1.632
1.647
1.657
1.632
1.603
1.603
1.593
1.574
1.544
1.544
1.569
1.574
1.584
1.652
1.76
1.867
1.975
2.087
2.209
2.297
2.331
2.356
2.366
2.336
2.258
2.165
2.072
1.979
1.857
1.75
1.696
1.652
1.613
1.584
1.588
1.623
1.628
1.623
1.637
1.657
1.652
1.628
1.618
1.628
1.623
1.593
1.593
1.623
1.637
1.632
1.623
1.632
1.647
1.628
1.613
1.628
1.637
1.623
1.603
1.608
1.632
1.628
1.613
1.628
1.652
1.657
1.647
1.642
1.662
1.667
1.642
1.637
1.657
1.662
1.652
1.642
1.662
1.676
1.657
1.652
1.672
1.681
1.676
1.667
1.676
1.701
1.701
1.676
1.681
1.696
1.696
1.681
1.681
1.701
1.711
1.686
1.696
1.725
1.735
1.73
1.72
1.73
1.745
1.73
1.716
1.73
1.745
1.74
1.725
1.73
1.75
1.74
1.72
1.74
1.76
1.764
1.75
1.75
1.764
1.76
1.725
1.72
1.735
1.74
1.725
1.72
1.735
1.755
1.735
1.725
1.745
1.75
1.74
1.73
1.735
1.755
1.745
1.72
1.73
1.75
1.74
1.72
1.72
1.74
1.74
1.716
1.711
1.73
1.735
1.72
1.706
1.711
1.72
1.691
1.676
1.691
1.701
1.686
1.672
1.676
1.686
1.667
1.637
1.642
1.657
1.647
1.637
1.632
1.652
1.657
1.637
1.647
1.672
1.681
1.667
1.657
1.672
1.681
1.652
1.632
1.647
1.662
1.652
1.642
1.652
1.681
1.672
1.652
1.667
1.681
1.681
1.667
1.662
1.686
1.686
1.662
1.657
1.676
1.676
1.667
1.657
1.667
1.681
1.657
1.652
1.672
1.691
1.686
1.667
1.667
1.676
1.662
1.637
1.647
1.667
1.662
1.652
1.652
1.672
1.672
1.647
1.647
1.672
1.676
1.672
1.662
1.681
1.701
1.672
1.662
1.672
1.676
1.662
1.642
1.647
1.667
1.662
1.642
1.657
1.676
1.672
1.657
1.657
1.676
1.676
1.652
1.647
1.667
1.672
1.657
1.647
1.662
1.672
1.647
1.637
1.657
1.672
1.662
1.652
1.657
1.676
1.667
1.647
1.657
1.672
1.667
1.652
1.647
1.667
1.662
1.637
1.637
1.662
1.667
1.657
1.652
1.676
1.696
1.676
1.672
1.696
1.706
1.696
1.676
1.681
1.696
1.686
1.662
1.681
1.701
1.706
1.706
1.716
1.74
1.74
1.716
1.716
1.735
1.74
1.73
1.725
1.74
1.76
1.735
1.725
1.735
1.735
1.706
1.681
1.676
1.686
1.667
1.642
1.652
1.667
1.662
1.647
1.647
1.672
1.676
1.652
1.657
1.681
1.691
1.681
1.672
1.676
1.681
1.647
1.628
1.632
1.628
1.603
1.569
1.564
1.569
1.559
1.549
1.593
1.662
1.745
1.843
1.97
2.111
2.224
2.292
2.361
2.414
2.41
2.361
2.287
2.214
2.121
1.989
1.877
1.804
1.735
1.667
1.618
1.603
1.618
1.608
1.603
1.632
1.662
1.662
1.652
1.647
1.662
1.657
1.623
1.623
1.642
1.647
1.637
1.632
1.642
1.652
1.628
1.623
1.637
1.647
1.632
1.618
1.628
1.652
1.642
1.628
1.642
1.662
1.662
1.652
1.652
1.672
1.667
1.642
1.642
1.667
1.672
1.662
1.652
1.667
1.676
1.652
1.642
1.662
1.676
1.667
1.662
1.672
1.691
1.681
1.667
1.676
1.696
1.691
1.681
1.681
1.701
1.701
1.676
1.681
1.706
1.706
1.701
1.701
1.73
1.745
1.725
1.72
1.735
1.75
1.735
1.716
1.72
1.74
1.73
1.716
1.73
1.75
1.75
1.74
1.74
1.76
1.755
1.73
1.73
1.755
1.755
1.745
1.74
1.76
1.779
1.755
1.74
1.745
1.745
1.725
1.711
1.711
1.72
1.701
1.686
1.706
1.73
1.73
1.716
1.711
1.73
1.725
1.701
1.706
1.725
1.725
1.711
1.706
1.72
1.725
1.696
1.686
1.701
1.711
1.701
1.686
1.691
1.711
1.691
1.667
1.676
1.686
1.676
1.662
1.657
1.676
1.672
1.652
1.652
1.672
1.672
1.662
1.657
1.676
1.681
1.652
1.637
1.652
1.662
1.652
1.642
1.647
1.667
1.662
1.647
1.662
1.672
1.662
1.647
1.647
1.667
1.662
1.642
1.647
1.672
1.676
1.662
1.657
1.676
1.686
1.662
1.657
1.681
1.691
1.681
1.672
1.681
1.696
1.681
1.662
1.672
1.686
1.681
1.667
1.667
1.681
1.672
1.647
1.652
1.672
1.672
1.662
1.657
1.676
1.686
1.657
1.652
1.667
1.681
1.672
1.662
1.667
1.681
1.657
1.637
1.647
1.662
1.657
1.642
1.647
1.672
1.672
1.652
1.657
1.676
1.672
1.652
1.642
1.652
1.667
1.647
1.647
1.672
1.681
1.676
1.662
1.667
1.686
1.667
1.647
1.662
1.676
1.676
1.667
1.672
1.696
1.696
1.672
1.676
1.696
1.696
1.686
1.686
1.706
1.72
1.701
1.701
1.725
1.735
1.725
1.716
1.725
1.74
1.725
1.711
1.725
1.745
1.74
1.725
1.725
1.74
1.725
1.691
1.686
1.696
1.686
1.672
1.662
1.676
1.676
1.652
1.642
1.662
1.672
1.667
1.657
1.667
1.686
1.672
1.652
1.672
1.686
1.676
1.657
1.652
1.662
1.647
1.618
1.608
1.613
1.603
1.584
1.579
1.618
1.662
1.696
1.769
1.877
1.979
2.063
2.126
2.195
2.248
2.243
2.214
2.185
2.141
2.058
1.96
1.877
1.818
1.745
1.662
1.628
1.623
1.618
1.613
1.623
1.652
1.672
1.652
1.647
1.662
1.667
1.657
1.647
1.657
1.676
1.657
1.642
1.657
1.672
1.657
1.642
1.642
1.662
1.657
1.637
1.642
1.662
1.662
1.647
1.642
1.662
1.672
1.647
1.642
1.662
1.676
1.667
1.657
1.667
1.686
1.676
1.662
1.676
1.696
1.686
1.672
1.676
1.691
1.686
1.662
1.667
1.686
1.686
1.681
1.681
1.701
1.716
1.691
1.691
1.716
1.72
1.716
1.706
1.72
1.74
1.725
1.711
1.725
1.74
1.74
1.725
1.725
1.745
1.735
1.716
1.725
1.75
1.755
1.74
1.735
1.755
1.764
1.735
1.735
1.75
1.76
1.75
1.74
1.755
1.774
1.755
1.735
1.745
1.764
1.755
1.74
1.74
1.76
1.75
1.725
1.73
1.75
1.745
1.73
1.73
1.745
1.75
1.725
1.72
1.745
1.75
1.73
1.711
1.716
1.73
1.706
1.686
1.701
1.711
1.701
1.686
1.686
1.706
1.701
1.676
1.686
1.701
1.696
1.681
1.672
1.686
1.686
1.657
1.647
1.662
1.667
1.662
1.652
1.662
1.676
1.657
1.642
1.657
1.676
1.667
1.652
1.652
1.672
1.662
1.637
1.642
1.657
1.657
1.642
1.642
1.662
1.667
1.647
1.647
1.667
1.676
1.672
1.667
1.681
1.696
1.676
1.657
1.667
1.681
1.667
1.652
1.662
1.681
1.676
1.662
1.672
1.691
1.691
1.676
1.672
1.686
1.696
1.667
1.667
1.686
1.691
1.681
1.672
1.681
1.691
1.672
1.657
1.672
1.686
1.676
1.667
1.667
1.686
1.681
1.657
1.667
1.686
1.686
1.667
1.662
1.676
1.681
1.652
1.652
1.672
1.676
1.662
1.647
1.657
1.672
1.652
1.637
1.652
1.667
1.657
1.647
1.652
1.672
1.672
1.652
1.667
1.691
1.696
1.686
1.686
1.701
1.701
1.672
1.672
1.696
1.711
1.706
1.706
1.72
1.74
1.72
1.706
1.72
1.73
1.725
1.711
1.716
1.74
1.73
1.706
1.706
1.72
1.706
1.681
1.662
1.672
1.662
1.632
1.628
1.647
1.657
1.652
1.642
1.652
1.667
1.642
1.628
1.637
1.642
1.632
1.628
1.637
1.667
1.662
1.642
1.647
1.657
1.637
1.603
1.579
1.579
1.574
1.554
1.574
1.628
1.691
1.764
1.857
1.975
2.087
2.151
2.199
2.258
2.287
2.273
2.229
2.175
2.121
2.028
1.916
1.843
1.779
1.711
1.642
1.608
1.608
1.613
1.593
1.608
1.642
1.657
1.647
1.632
1.642
1.652
1.628
1.613
1.632
1.642
1.637
1.623
1.632
1.652
1.637
1.613
1.623
1.647
1.647
1.637
1.632
1.647
1.657
1.632
1.632
1.652
1.652
1.642
1.632
1.647
1.657
1.637
1.618
1.637
1.652
1.647
1.642
1.662
1.686
1.681
1.662
1.667
1.686
1.686
1.672
1.672
1.686
1.691
1.672
1.672
1.701
1.706
1.696
1.691
1.706
1.72
1.696
1.681
1.701
1.711
1.701
1.686
1.696
1.72
1.716
1.706
1.716
1.735
1.735
1.725
1.725
1.745
1.75
1.72
1.72
1.74
1.74
1.73
1.725
1.74
1.755
1.735
1.725
1.745
1.76
1.75
1.735
1.735
1.755
1.74
1.716
1.725
1.745
1.745
1.73
1.73
1.745
1.745
1.716
1.711
1.73
1.735
1.72
1.711
1.72
1.73
1.706
1.696
1.711
1.72
1.711
1.691
1.691
1.706
1.696
1.672
1.676
1.691
1.686
1.676
1.672
1.681
1.681
1.647
1.642
1.662
1.657
1.647
1.637
1.652
1.667
1.642
1.628
1.642
1.652
1.647
1.637
1.642
1.662
1.652
1.628
1.637
1.657
1.652
1.637
1.637
1.657
1.662
1.642
1.642
1.667
1.667
1.657
1.647
1.657
1.672
1.652
1.637
1.652
1.667
1.662
1.647
1.652
1.676
1.667
1.647
1.657
1.676
1.672
1.657
1.657
1.676
1.676
1.652
1.652
1.676
1.681
1.672
1.657
1.672
1.681
1.652
1.642
1.657
1.672
1.667
1.652
1.662
1.681
1.676
1.652
1.662
1.676
1.672
1.657
1.652
1.672
1.672
1.642
1.642
1.662
1.657
1.647
1.637
1.657
1.672
1.652
1.647
1.672
1.681
1.672
1.657
1.657
1.667
1.642
1.618
1.628
1.647
1.642
1.632
1.632
1.652
1.652
1.628
1.632
1.657
1.662
1.662
1.652
1.667
1.672
1.642
1.628
1.642
1.652
1.647
1.637
1.652
1.681
1.676
1.657
1.667
1.681
1.672
1.657
1.652
1.672
1.672
1.647
1.652
1.676
1.686
1.686
1.686
1.711
1.73
1.72
1.716
1.74
1.745
1.735
1.716
1.716
1.725
1.706
1.681
1.691
1.706
1.701
1.686
1.681
1.691
1.681
1.647
1.642
1.652
1.647
1.632
1.632
1.652
1.667
1.652
1.647
1.667
1.676
1.667
1.652
1.657
1.667
1.647
1.623
1.623
1.632
1.613
1.584
1.564
1.574
1.569
1.549
1.579
1.647
1.725
1.813
1.926
2.067
2.204
2.283
2.341
2.39
2.405
2.37
2.302
2.234
2.151
2.033
1.916
1.833
1.769
1.701
1.642
1.608
1.608
1.603
1.588
1.608
1.647
1.662
1.652
1.637
1.642
1.642
1.613
1.603
1.628
1.642
1.642
1.632
1.637
1.652
1.637
1.613
1.623
1.637
1.632
1.618
1.623
1.642
1.647
1.628
1.632
1.652
1.657
1.647
1.642
1.657
1.667
1.642
1.632
1.647
1.662
1.652
1.642
1.652
1.672
1.652
1.632
1.647
1.667
1.662
1.647
1.652
1.676
1.676
1.657
1.667
1.686
1.686
1.676
1.672
1.691
1.701
1.681
1.672
1.696
1.706
1.701
1.686
1.696
1.72
1.711
1.696
1.711
1.73
1.73
1.72
1.72
1.745
1.745
1.72
1.72
1.74
1.745
1.735
1.73
1.75
1.764
1.74
1.73
1.75
1.76
1.745
1.725
1.735
1.75
1.735
1.716
1.725
1.74
1.735
1.72
1.725
1.745
1.745
1.72
1.72
1.74
1.74
1.725
1.716
1.725
1.73
1.701
1.691
1.711
1.72
1.711
1.701
1.706
1.725
1.706
1.681
1.691
1.696
1.691
1.676
1.676
1.691
1.681
1.652
1.657
1.676
1.676
1.662
1.657
1.672
1.681
1.652
1.642
1.657
1.667
1.652
1.637
1.642
1.672
1.657
1.637
1.642
1.657
1.647
1.632
1.628
1.642
1.637
1.618
1.628
1.657
1.662
1.652
1.647
1.662
1.672
1.652
1.647
1.667
1.676
1.667
1.652
1.657
1.672
1.652
1.637
1.647
1.662
1.657
1.647
1.652
1.676
1.676
1.652
1.657
1.676
1.676
1.667
1.662
1.681
1.691
1.667
1.657
1.672
1.676
1.662
1.642
1.647
1.662
1.642
1.623
1.632
1.652
1.652
1.642
1.652
1.672
1.672
1.647
1.652
1.672
1.672
1.657
1.647
1.662
1.672
1.647
1.637
1.657
1.662
1.652
1.637
1.642
1.657
1.642
1.628
1.647
1.662
1.657
1.647
1.652
1.676
1.672
1.647
1.652
1.667
1.667
1.657
1.647
1.662
1.667
1.637
1.632
1.647
1.657
1.647
1.632
1.642
1.657
1.642
1.628
1.642
1.657
1.652
1.637
1.637
1.662
1.657
1.632
1.632
1.657
1.662
1.657
1.652
1.672
1.686
1.662
1.657
1.681
1.691
1.686
1.681
1.691
1.706
1.691
1.672
1.686
1.706
1.706
1.696
1.701
1.73
1.735
1.716
1.716
1.735
1.725
1.706
1.696
1.701
1.701
1.672
1.657
1.662
1.667
1.652
1.637
1.642
1.662
1.647
1.632
1.647
1.662
1.657
1.637
1.637
1.652
1.642
1.618
1.623
1.642
1.637
1.623
1.613
1.618
1.613
1.569
1.549
1.554
1.559
1.559
1.574
1.637
1.74
1.838
1.95
2.097
2.234
2.326
2.38
2.414
2.434
2.395
2.307
2.224
2.136
2.033
1.916
1.813
1.74
1.681
1.608
1.574
1.588
1.598
1.608
1.618
1.647
1.672
1.652
1.628
1.628
1.632
1.618
1.598
1.598
1.623
1.623
1.603
1.608
1.628
1.628
1.618
1.618
1.637
1.647
1.623
1.613
1.632
1.637
1.628
1.618
1.632
1.652
1.632
1.618
1.637
1.652
1.647
1.637
1.642
1.662
1.657
1.632
1.637
1.657
1.652
1.642
1.632
1.647
1.657
1.637
1.637
1.662
1.676
1.672
1.662
1.672
1.691
1.672
1.657
1.672
1.686
1.681
1.667
1.676
1.696
1.696
1.672
1.686
1.711
1.716
1.711
1.711
1.73
1.74
1.716
1.711
1.73
1.735
1.72
1.711
1.725
1.75
1.735
1.725
1.745
1.764
1.76
1.75
1.75
1.769
1.76
1.73
1.74
1.755
1.75
1.735
1.73
1.74
1.745
1.72
1.711
1.73
1.735
1.73
1.716
1.725
1.74
1.72
1.706
1.72
1.735
1.725
1.711
1.711
1.73
1.72
1.691
1.696
1.711
1.711
1.696
1.686
1.706
1.711
1.686
1.681
1.696
1.701
1.691
1.676
1.681
1.691
1.672
1.647
1.662
1.667
1.662
1.642
1.647
1.667
1.662
1.632
1.642
1.662
1.667
1.657
1.662
1.681
1.686
1.657
1.652
1.672
1.667
1.652
1.637
1.647
1.667
1.652
1.642
1.667
1.686
1.681
1.672
1.672
1.691
1.686
1.657
1.662
1.681
1.681
1.667
1.662
1.681
1.686
1.662
1.657
1.672
1.681
1.676
1.667
1.676
1.701
1.681
1.672
1.686
1.696
1.686
1.676
1.676
1.696
1.686
1.667
1.672
1.691
1.691
1.681
1.676
1.696
1.701
1.676
1.672
1.691
1.696
1.686
1.672
1.681
1.691
1.667
1.647
1.662
1.681
1.676
1.667
1.667
1.686
1.681
1.652
1.657
1.676
1.672
1.662
1.662
1.681
1.691
1.667
1.662
1.681
1.686
1.672
1.657
1.662
1.676
1.657
1.647
1.662
1.681
1.672
1.657
1.667
1.691
1.681
1.662
1.667
1.686
1.681
1.667
1.667
1.681
1.691
1.662
1.662
1.686
1.696
1.686
1.676
1.686
1.706
1.681
1.672
1.696
1.72
1.72
1.716
1.725
1.75
1.74
1.716
1.72
1.735
1.73
1.72
1.72
1.745
1.76
1.73
1.725
1.74
1.735
1.711
1.691
1.691
1.701
1.676
1.657
1.672
1.686
1.676
1.662
1.662
1.676
1.672
1.647
1.657
1.676
1.672
1.662
1.657
1.676
1.676
1.647
1.642
1.647
1.642
1.608
1.574
1.564
1.564
1.54
1.54
1.584
1.657
1.74
1.848
1.984
2.136
2.243
2.317
2.39
2.439
2.434
2.385
2.317
2.248
2.151
2.019
1.911
1.833
1.76
1.686
1.632
1.613
1.618
1.608
1.608
1.637
1.662
1.657
1.642
1.637
1.647
1.628
1.598
1.608
1.632
1.637
1.628
1.623
1.642
1.647
1.618
1.618
1.637
1.647
1.637
1.632
1.647
1.662
1.642
1.623
1.637
1.652
1.647
1.632
1.637
1.657
1.647
1.623
1.632
1.652
1.652
1.642
1.642
1.667
1.681
1.662
1.662
1.681
1.686
1.667
1.657
1.667
1.681
1.662
1.647
1.667
1.686
1.686
1.676
1.681
1.701
1.691
1.672
1.681
1.701
1.701
1.691
1.701
1.725
1.73
1.706
1.701
1.725
1.73
1.72
1.706
1.72
1.735
1.72
1.711
1.725
1.74
1.735
1.725
1.74
1.764
1.755
1.735
1.745
1.769
1.76
1.745
1.735
1.745
1.745
1.72
1.725
1.75
1.76
1.75
1.735
1.745
1.755
1.725
1.706
1.72
1.73
1.72
1.711
1.72
1.745
1.735
1.711
1.716
1.73
1.72
1.706
1.701
1.72
1.72
1.696
1.691
1.711
1.716
1.701
1.686
1.696
1.706
1.676
1.662
1.676
1.686
1.672
1.657
1.662
1.681
1.676
1.652
1.657
1.672
1.667
1.652
1.647
1.662
1.662
1.637
1.637
1.662
1.662
1.657
1.647
1.662
1.672
1.652
1.642
1.657
1.672
1.667
1.657
1.657
1.667
1.652
1.628
1.642
1.662
1.667
1.657
1.662
1.686
1.686
1.662
1.662
1.676
1.672
1.657
1.647
1.662
1.676
1.662
1.652
1.676
1.686
1.681
1.662
1.662
1.681
1.672
1.647
1.657
1.676
1.672
1.657
1.652
1.676
1.681
1.652
1.647
1.667
1.672
1.662
1.652
1.662
1.672
1.652
1.637
1.652
1.667
1.657
1.642
1.647
1.672
1.667
1.647
1.657
1.676
1.676
1.667
1.662
1.676
1.676
1.647
1.637
1.652
1.652
1.637
1.632
1.652
1.667
1.652
1.647
1.672
1.686
1.676
1.662
1.662
1.676
1.667
1.642
1.652
1.672
1.676
1.667
1.667
1.686
1.686
1.657
1.662
1.681
1.686
1.672
1.662
1.676
1.686
1.667
1.652
1.667
1.681
1.681
1.681
1.696
1.73
1.73
1.716
1.73
1.75
1.745
1.73
1.725
1.745
1.745
1.72
1.725
1.75
1.755
1.74
1.725
1.725
1.73
1.706
1.686
1.696
1.696
1.681
1.662
1.657
1.676
1.662
1.637
1.647
1.667
1.662
1.657
1.652
1.667
1.672
1.637
1.637
1.657
1.657
1.642
1.628
1.628
1.623
1.584
1.549
1.549
1.554
1.559
1.584
1.652
1.764
1.872
1.984
2.131
2.263
2.351
2.405
2.429
2.434
2.39
2.292
2.204
2.116
2.009
1.896
1.799
1.735
1.691
1.632
1.593
1.603
1.618
1.628
1.628
1.647
1.667
1.652
1.623
1.632
1.647
1.637
1.623
1.628
1.642
1.642
1.618
1.618
1.637
1.637
1.628
1.618
1.637
1.652
1.632
1.623
1.637
1.647
1.642
1.632
1.647
1.662
1.652
1.628
1.637
1.657
1.657
1.647
1.647
1.672
1.676
1.647
1.647
1.667
1.672
1.662
1.652
1.672
1.686
1.667
1.657
1.676
1.696
1.686
1.672
1.681
1.701
1.691
1.672
1.691
1.711
1.711
1.696
1.696
1.711
1.716
1.696
1.701
1.725
1.73
1.725
1.72
1.74
1.755
1.73
1.72
1.735
1.75
1.74
1.73
1.74
1.76
1.745
1.725
1.735
1.755
1.755
1.745
1.745
1.769
1.769
1.745
1.745
1.76
1.76
1.745
1.735
1.75
1.76
1.735
1.725
1.74
1.755
1.75
1.74
1.745
1.76
1.74
1.716
1.72
1.74
1.735
1.72
1.711
1.73
1.725
1.701
1.696
1.716
1.72
1.706
1.701
1.711
1.72
1.701
1.691
1.706
1.716
1.701
1.681
1.681
1.696
1.681
1.662
1.672
1.686
1.681
1.667
1.662
1.676
1.676
1.647
1.642
1.662
1.662
1.657
1.657
1.676
1.691
1.672
1.662
1.676
1.681
1.667
1.652
1.662
1.676
1.662
1.642
1.652
1.676
1.672
1.662
1.662
1.681
1.681
1.657
1.657
1.681
1.681
1.676
1.667
1.686
1.696
1.676
1.667
1.686
1.696
1.686
1.676
1.681
1.701
1.681
1.657
1.662
1.681
1.681
1.667
1.667
1.691
1.691
1.662
1.667
1.686
1.681
1.667
1.657
1.667
1.672
1.647
1.637
1.657
1.672
1.667
1.657
1.672
1.691
1.676
1.657
1.672
1.691
1.686
1.672
1.672
1.691
1.691
1.662
1.667
1.691
1.696
1.686
1.681
1.701
1.72
1.706
1.706
1.725
1.74
1.74
1.73
1.74
1.764
1.75
1.725
1.735
1.745
1.74
1.725
1.72
1.74
1.735
1.711
1.701
1.716
1.716
1.696
1.686
1.691
1.701
1.672
1.662
1.676
1.686
1.672
1.657
1.662
1.681
1.667
1.647
1.662
1.676
1.672
1.652
1.652
1.667
1.667
1.637
1.632
1.642
1.632
1.613
1.598
1.598
1.598
1.569
1.574
1.623
1.691
1.764
1.857
1.975
2.097
2.18
2.234
2.297
2.336
2.326
2.278
2.219
2.155
2.058
1.935
1.843
1.779
1.706
1.642
1.603
1.608
1.623
1.618
1.632
1.667
1.691
1.681
1.662
1.662
1.672
1.647
1.618
1.628
1.642
1.642
1.628
1.628
1.647
1.652
1.628
1.637
1.667
1.672
1.657
1.652
1.667
1.672
1.647
1.637
1.657
1.667
1.657
1.652
1.662
1.686
1.676
1.662
1.672
1.691
1.681
1.667
1.667
1.686
1.686
1.662
1.667
1.691
1.691
1.686
1.676
1.696
1.706
1.686
1.676
1.696
1.711
1.706
1.696
1.711
1.73
1.716
1.696
1.711
1.73
1.725
1.716
1.716
1.74
1.75
1.735
1.745
1.764
1.764
1.75
1.74
1.755
1.764
1.74
1.73
1.75
1.764
1.76
1.75
1.764
1.784
1.774
1.76
1.774
1.784
1.779
1.76
1.755
1.764
1.755
1.725
1.725
1.75
1.76
1.75
1.75
1.769
1.779
1.755
1.74
1.755
1.755
1.74
1.725
1.735
1.755
1.74
1.716
1.73
1.745
1.735
1.72
1.711
1.72
1.716
1.691
1.691
1.716
1.72
1.711
1.701
1.716
1.72
1.691
1.676
1.686
1.686
1.676
1.662
1.667
1.681
1.662
1.647
1.657
1.676
1.672
1.657
1.657
1.672
1.672
1.647
1.652
1.676
1.681
1.672
1.672
1.686
1.696
1.667
1.657
1.672
1.676
1.662
1.652
1.667
1.691
1.681
1.667
1.681
1.696
1.691
1.681
1.676
1.696
1.691
1.672
1.676
1.696
1.701
1.686
1.681
1.691
1.696
1.672
1.662
1.681
1.691
1.681
1.672
1.681
1.701
1.686
1.667
1.686
1.706
1.706
1.696
1.701
1.72
1.72
1.691
1.691
1.706
1.706
1.696
1.696
1.716
1.735
1.72
1.72
1.745
1.755
1.74
1.725
1.73
1.745
1.73
1.716
1.73
1.745
1.74
1.725
1.72
1.73
1.72
1.686
1.681
1.696
1.686
1.672
1.667
1.681
1.691
1.667
1.662
1.676
1.686
1.681
1.672
1.681
1.701
1.686
1.662
1.676
1.691
1.681
1.662
1.657
1.672
1.662
1.632
1.632
1.652
1.652
1.637
1.628
1.642
1.662
1.667
1.701
1.784
1.862
1.926
1.979
2.043
2.107
2.116
2.102
2.102
2.082
2.028
1.955
1.891
1.843
1.774
1.691
1.652
1.637
1.618
1.598
1.603
1.642
1.672
1.667
1.672
1.696
1.696
1.676
1.662
1.667
1.681
1.667
1.652
1.672
1.686
1.681
1.667
1.667
1.681
1.676
1.652
1.657
1.681
1.686
1.676
1.672
1.691
1.701
1.676
1.667
1.681
1.691
1.681
1.672
1.691
1.716
1.701
1.681
1.691
1.711
1.701
1.686
1.681
1.701
1.696
1.672
1.681
1.711
1.716
1.716
1.716
1.735
1.74
1.72
1.711
1.735
1.745
1.735
1.725
1.74
1.76
1.74
1.72
1.735
1.755
1.755
1.745
1.745
1.769
1.764
1.745
1.755
1.769
1.764
1.755
1.75
1.769
1.784
1.769
1.764
1.784
1.794
1.789
1.779
1.789
1.804
1.784
1.76
1.774
1.784
1.779
1.764
1.764
1.779
1.774
1.75
1.76
1.784
1.784
1.774
1.764
1.774
1.774
1.745
1.735
1.745
1.75
1.735
1.725
1.735
1.755
1.74
1.725
1.735
1.745
1.74
1.72
1.716
1.73
1.72
1.696
1.696
1.711
1.706
1.686
1.676
1.691
1.701
1.672
1.667
1.681
1.691
1.681
1.672
1.681
1.691
1.672
1.652
1.667
1.681
1.676
1.662
1.662
1.681
1.672
1.652
1.657
1.681
1.681
1.672
1.667
1.681
1.691
1.667
1.662
1.681
1.691
1.686
1.681
1.696
1.711
1.691
1.672
1.681
1.696
1.691
1.681
1.681
1.701
1.696
1.676
1.681
1.706
1.706
1.696
1.691
1.711
1.725
1.706
1.696
1.716
1.72
1.711
1.701
1.716
1.735
1.72
1.706
1.725
1.75
1.75
1.735
1.735
1.755
1.745
1.72
1.725
1.745
1.745
1.735
1.73
1.745
1.745
1.716
1.696
1.706
1.696
1.676
1.657
1.662
1.676
1.657
1.642
1.662
1.676
1.672
1.662
1.667
1.686
1.681
1.657
1.662
1.676
1.672
1.657
1.647
1.662
1.667
1.642
1.632
1.642
1.642
1.632
1.618
1.623
1.637
1.628
1.618
1.657
1.716
1.764
1.818
1.887
1.97
2.014
2.028
2.058
2.082
2.067
2.023
1.97
1.931
1.877
1.794
1.735
1.706
1.676
1.637
1.608
1.613
1.637
1.632
1.632
1.652
1.676
1.672
1.657
1.657
1.667
1.652
1.623
1.628
1.642
1.642
1.632
1.632
1.652
1.662
1.642
1.642
1.667
1.676
1.667
1.657
1.662
1.676
1.657
1.637
1.652
1.667
1.662
1.647
1.657
1.676
1.672
1.647
1.652
1.667
1.667
1.652
1.652
1.676
1.691
1.672
1.672
1.696
1.706
1.696
1.681
1.691
1.711
1.691
1.676
1.691
1.711
1.706
1.696
1.701
1.72
1.72
1.696
1.701
1.725
1.725
1.716
1.711
1.725
1.735
1.716
1.711
1.73
1.735
1.725
1.716
1.73
1.75
1.735
1.725
1.745
1.764
1.764
1.745
1.745
1.76
1.745
1.72
1.725
1.745
1.75
1.74
1.74
1.76
1.769
1.74
1.735
1.745
1.75
1.735
1.72
1.725
1.745
1.73
1.711
1.725
1.74
1.735
1.72
1.72
1.735
1.725
1.701
1.701
1.72
1.716
1.696
1.686
1.701
1.706
1.676
1.667
1.681
1.681
1.672
1.662
1.672
1.686
1.662
1.642
1.652
1.662
1.652
1.637
1.637
1.657
1.652
1.632
1.637
1.662
1.667
1.657
1.642
1.657
1.662
1.637
1.628
1.647
1.652
1.642
1.637
1.647
1.672
1.652
1.637
1.652
1.667
1.662
1.647
1.647
1.667
1.662
1.642
1.652
1.672
1.672
1.662
1.662
1.681
1.691
1.667
1.667
1.686
1.696
1.691
1.681
1.696
1.711
1.696
1.676
1.686
1.701
1.691
1.681
1.686
1.711
1.706
1.696
1.706
1.725
1.725
1.711
1.706
1.72
1.72
1.691
1.686
1.706
1.711
1.696
1.686
1.686
1.701
1.681
1.662
1.676
1.691
1.681
1.667
1.667
1.681
1.667
1.632
1.637
1.652
1.647
1.632
1.623
1.642
1.652
1.637
1.637
1.657
1.667
1.657
1.647
1.657
1.667
1.637
1.613
1.618
1.623
1.603
1.584
1.579
1.593
1.593
1.593
1.632
1.701
1.769
1.843
1.926
2.028
2.107
2.131
2.155
2.18
2.17
2.126
2.058
1.999
1.94
1.848
1.76
1.711
1.676
1.628
1.584
1.579
1.598
1.603
1.593
1.613
1.642
1.642
1.632
1.623
1.637
1.642
1.613
1.603
1.628
1.632
1.623
1.613
1.623
1.632
1.618
1.608
1.628
1.642
1.637
1.628
1.632
1.647
1.637
1.613
1.618
1.637
1.637
1.628
1.628
1.647
1.662
1.637
1.632
1.652
1.657
1.642
1.632
1.637
1.652
1.632
1.618
1.637
1.657
1.652
1.637
1.637
1.657
1.652
1.632
1.642
1.667
1.667
1.662
1.662
1.686
1.696
1.672
1.667
1.686
1.696
1.691
1.681
1.696
1.711
1.696
1.686
1.706
1.725
1.72
1.716
1.725
1.75
1.745
1.72
1.725
1.74
1.735
1.716
1.711
1.725
1.73
1.706
1.706
1.72
1.725
1.711
1.696
1.711
1.725
1.706
1.696
1.716
1.735
1.73
1.716
1.716
1.73
1.716
1.686
1.686
1.701
1.691
1.681
1.676
1.691
1.701
1.676
1.672
1.691
1.701
1.691
1.681
1.686
1.701
1.672
1.647
1.662
1.672
1.657
1.637
1.637
1.657
1.647
1.623
1.632
1.652
1.652
1.642
1.637
1.652
1.652
1.623
1.618
1.632
1.632
1.628
1.618
1.632
1.652
1.632
1.623
1.632
1.642
1.632
1.618
1.623
1.637
1.632
1.613
1.628
1.647
1.652
1.642
1.637
1.657
1.662
1.637
1.632
1.657
1.667
1.657
1.647
1.657
1.676
1.657
1.642
1.652
1.662
1.657
1.642
1.647
1.667
1.657
1.637
1.647
1.672
1.672
1.667
1.667
1.686
1.691
1.667
1.662
1.681
1.686
1.676
1.676
1.696
1.716
1.701
1.691
1.716
1.725
1.716
1.696
1.696
1.716
1.711
1.691
1.701
1.716
1.711
1.696
1.686
1.696
1.691
1.652
1.642
1.652
1.657
1.642
1.632
1.642
1.657
1.637
1.623
1.637
1.652
1.647
1.637
1.642
1.662
1.647
1.618
1.623
1.632
1.628
1.608
1.593
1.598
1.588
1.554
1.54
1.559
1.564
1.574
1.598
1.672
1.774
1.862
1.965
2.092
2.199
2.263
2.297
2.317
2.326
2.278
2.195
2.116
2.043
1.945
1.843
1.755
1.706
1.657
1.598
1.574
1.588
1.603
1.603
1.603
1.628
1.647
1.623
1.603
1.608
1.613
1.603
1.588
1.598
1.628
1.618
1.593
1.603
1.623
1.623
1.613
1.608
1.628
1.628
1.603
1.603
1.623
1.632
1.623
1.613
1.628
1.642
1.623
1.608
1.623
1.642
1.632
1.623
1.632
1.652
1.647
1.623
1.632
1.647
1.642
1.628
1.628
1.652
1.657
1.637
1.637
1.657
1.667
1.657
1.647
1.662
1.672
1.657
1.647
1.667
1.686
1.676
1.667
1.667
1.686
1.681
1.657
1.667
1.691
1.696
1.686
1.691
1.716
1.725
1.701
1.701
1.725
1.73
1.72
1.706
1.716
1.73
1.701
1.686
1.696
1.711
1.706
1.696
1.706
1.735
1.735
1.72
1.73
1.755
1.745
1.73
1.72
1.735
1.735
1.706
1.701
1.72
1.725
1.716
1.706
1.72
1.73
1.711
1.691
1.706
1.711
1.701
1.681
1.686
1.701
1.691
1.667
1.681
1.701
1.701
1.686
1.676
1.686
1.681
1.647
1.637
1.657
1.657
1.647
1.637
1.652
1.667
1.647
1.637
1.652
1.667
1.652
1.642
1.647
1.662
1.652
1.632
1.642
1.662
1.662
1.647
1.647
1.667
1.672
1.647
1.642
1.662
1.662
1.652
1.642
1.652
1.667
1.647
1.637
1.652
1.672
1.672
1.662
1.667
1.686
1.676
1.657
1.662
1.676
1.676
1.667
1.662
1.681
1.686
1.662
1.662
1.681
1.681
1.676
1.662
1.676
1.686
1.662
1.642
1.657
1.672
1.662
1.652
1.662
1.691
1.686
1.662
1.667
1.681
1.672
1.657
1.657
1.676
1.686
1.667
1.676
1.701
1.711
1.706
1.696
1.706
1.72
1.701
1.691
1.711
1.735
1.735
1.725
1.73
1.75
1.735
1.711
1.716
1.73
1.735
1.725
1.725
1.745
1.755
1.725
1.72
1.73
1.73
1.711
1.696
1.701
1.706
1.681
1.662
1.672
1.681
1.667
1.652
1.657
1.672
1.662
1.637
1.652
1.672
1.672
1.657
1.657
1.676
1.681
1.652
1.642
1.657
1.647
1.623
1.598
1.598
1.603
1.579
1.574
1.613
1.672
1.735
1.813
1.916
2.038
2.116
2.17
2.229
2.278
2.278
2.243
2.195
2.146
2.063
1.955
1.872
1.808
1.745
1.672
1.623
1.613
1.618
1.603
1.603
1.637
1.662
1.662
1.657
1.657
1.672
1.657
1.632
1.637
1.657
1.652
1.637
1.628
1.642
1.642
1.613
1.613
1.637
1.647
1.642
1.637
1.652
1.672
1.652
1.637
1.657
1.667
1.662
1.647
1.652
1.672
1.657
1.637
1.647
1.672
1.667
1.657
1.657
1.676
1.676
1.652
1.647
1.667
1.676
1.667
1.662
1.681
1.701
1.686
1.676
1.691
1.696
1.681
1.667
1.672
1.691
1.686
1.667
1.681
1.701
1.701
1.696
1.691
1.716
1.72
1.701
1.706
1.73
1.74
1.735
1.725
1.74
1.75
1.725
1.716
1.735
1.75
1.745
1.73
1.74
1.76
1.755
1.735
1.745
1.76
1.755
1.74
1.73
1.745
1.745
1.72
1.716
1.745
1.75
1.74
1.73
1.74
1.755
1.725
1.706
1.72
1.725
1.72
1.711
1.72
1.735
1.72
1.691
1.701
1.716
1.711
1.696
1.696
1.716
1.72
1.696
1.696
1.711
1.711
1.691
1.676
1.681
1.691
1.662
1.647
1.662
1.672
1.667
1.657
1.667
1.681
1.672
1.647
1.652
1.672
1.662
1.642
1.637
1.652
1.652
1.632
1.628
1.652
1.662
1.652
1.642
1.652
1.667
1.642
1.632
1.652
1.667
1.662
1.657
1.667
1.681
1.667
1.642
1.647
1.667
1.657
1.647
1.652
1.681
1.691
1.672
1.672
1.691
1.691
1.676
1.662
1.672
1.681
1.662
1.652
1.672
1.686
1.681
1.672
1.676
1.696
1.686
1.662
1.667
1.676
1.672
1.662
1.657
1.676
1.681
1.657
1.662
1.686
1.691
1.681
1.667
1.676
1.681
1.652
1.637
1.652
1.667
1.657
1.647
1.657
1.676
1.672
1.647
1.662
1.681
1.681
1.667
1.667
1.686
1.691
1.662
1.657
1.672
1.676
1.662
1.652
1.667
1.681
1.662
1.652
1.672
1.681
1.667
1.652
1.657
1.681
1.672
1.657
1.672
1.691
1.686
1.676
1.672
1.691
1.696
1.667
1.672
1.701
1.711
1.711
1.711
1.73
1.745
1.72
1.706
1.72
1.73
1.725
1.716
1.72
1.74
1.73
1.706
1.716
1.73
1.72
1.701
1.691
1.701
1.701
1.667
1.662
1.676
1.676
1.662
1.652
1.667
1.676
1.652
1.637
1.652
1.662
1.657
1.642
1.647
1.667
1.652
1.623
1.628
1.632
1.613
1.579
1.564
1.579
1.584
1.574
1.608
1.681
1.764
1.862
1.975
2.102
2.219
2.273
2.317
2.356
2.356
2.312
2.243
2.165
2.092
1.984
1.872
1.794
1.74
1.681
1.628
1.608
1.618
1.628
1.613
1.628
1.662
1.672
1.657
1.642
1.647
1.657
1.628
1.618
1.637
1.647
1.632
1.618
1.618
1.637
1.623
1.608
1.628
1.652
1.657
1.647
1.647
1.662
1.662
1.628
1.623
1.642
1.642
1.632
1.623
1.637
1.652
1.632
1.623
1.642
1.662
1.662
1.657
1.667
1.691
1.681
1.657
1.662
1.676
1.672
1.657
1.647
1.672
1.672
1.647
1.652
1.672
1.681
1.672
1.667
1.686
1.706
1.686
1.681
1.706
1.72
1.706
1.696
1.701
1.716
1.706
1.681
1.691
1.711
1.711
1.701
1.701
1.72
1.72
1.701
1.701
1.72
1.725
1.711
1.706
1.72
1.735
1.716
1.711
1.735
1.75
1.745
1.73
1.735
1.75
1.735
1.711
1.72
1.735
1.73
1.716
1.716
1.73
1.73
1.706
1.706
1.725
1.73
1.72
1.716
1.73
1.74
1.711
1.691
1.701
1.706
1.696
1.676
1.686
1.701
1.691
1.676
1.686
1.706
1.696
1.681
1.676
1.691
1.691
1.662
1.657
1.672
1.667
1.652
1.642
1.652
1.662
1.637
1.628
1.647
1.662
1.657
1.647
1.652
1.672
1.657
1.632
1.642
1.657
1.652
1.637
1.632
1.652
1.652
1.632
1.637
1.662
1.667
1.657
1.647
1.657
1.672
1.647
1.637
1.657
1.662
1.652
1.642
1.652
1.676
1.667
1.647
1.662
1.686
1.686
1.676
1.672
1.691
1.686
1.652
1.652
1.672
1.676
1.662
1.657
1.676
1.696
1.676
1.667
1.681
1.691
1.676
1.662
1.667
1.681
1.667
1.642
1.657
1.676
1.676
1.662
1.662
1.676
1.672
1.642
1.642
1.657
1.662
1.652
1.647
1.667
1.681
1.667
1.657
1.676
1.686
1.676
1.662
1.667
1.681
1.672
1.647
1.657
1.672
1.667
1.647
1.647
1.667
1.667
1.642
1.642
1.662
1.662
1.652
1.647
1.667
1.676
1.652
1.642
1.662
1.672
1.662
1.652
1.657
1.676
1.667
1.647
1.662
1.681
1.681
1.672
1.676
1.691
1.686
1.662
1.667
1.691
1.701
1.696
1.691
1.711
1.73
1.716
1.711
1.735
1.745
1.735
1.72
1.725
1.74
1.72
1.701
1.706
1.72
1.716
1.701
1.696
1.711
1.706
1.672
1.662
1.672
1.667
1.652
1.647
1.662
1.676
1.652
1.642
1.667
1.681
1.676
1.662
1.667
1.681
1.667
1.647
1.657
1.662
1.642
1.608
1.588
1.588
1.574
1.54
1.544
1.579
1.618
1.667
1.755
1.877
2.014
2.107
2.199
2.292
2.351
2.366
2.341
2.307
2.258
2.16
2.053
1.965
1.896
1.808
1.73
1.676
1.662
1.632
1.598
1.598
1.628
1.642
1.637
1.637
1.652
1.657
1.632
1.623
1.642
1.657
1.652
1.642
1.652
1.667
1.652
1.632
1.652
1.676
1.681
1.676
1.672
1.681
1.672
1.628
1.623
1.632
1.628
1.618
1.608
1.632
1.652
1.637
1.632
1.647
1.652
1.642
1.628
1.637
1.662
1.652
1.637
1.657
1.676
1.672
1.662
1.662
1.681
1.686
1.652
1.652
1.667
1.672
1.657
1.657
1.672
1.686
1.667
1.662
1.686
1.706
1.696
1.691
1.696
1.716
1.706
1.686
1.706
1.725
1.72
1.711
1.711
1.73
1.73
1.706
1.711
1.735
1.74
1.73
1.725
1.74
1.75
1.725
1.711
1.73
1.74
1.73
1.72
1.73
1.75
1.735
1.72
1.73
1.75
1.74
1.72
1.716
1.73
1.72
1.691
1.691
1.716
1.72
1.711
1.706
1.72
1.735
1.716
1.701
1.711
1.716
1.711
1.696
1.711
1.725
1.706
1.686
1.686
1.701
1.686
1.672
1.672
1.691
1.696
1.672
1.672
1.686
1.681
1.667
1.652
1.667
1.672
1.647
1.637
1.662
1.672
1.667
1.652
1.657
1.672
1.652
1.632
1.642
1.662
1.657
1.642
1.647
1.672
1.676
1.652
1.657
1.676
1.676
1.662
1.647
1.657
1.662
1.637
1.632
1.652
1.662
1.662
1.652
1.662
1.681
1.667
1.652
1.662
1.686
1.681
1.667
1.667
1.681
1.676
1.652
1.652
1.672
1.676
1.667
1.662
1.681
1.691
1.672
1.662
1.676
1.681
1.672
1.657
1.667
1.686
1.672
1.647
1.662
1.681
1.681
1.667
1.667
1.691
1.691
1.667
1.672
1.691
1.691
1.676
1.667
1.676
1.681
1.657
1.647
1.662
1.676
1.667
1.657
1.667
1.681
1.667
1.647
1.662
1.676
1.676
1.667
1.667
1.691
1.691
1.662
1.662
1.681
1.681
1.667
1.657
1.667
1.681
1.657
1.652
1.672
1.691
1.681
1.676
1.686
1.711
1.696
1.676
1.691
1.701
1.696
1.681
1.676
1.696
1.691
1.672
1.681
1.711
1.72
1.72
1.716
1.735
1.75
1.73
1.72
1.74
1.75
1.74
1.725
1.73
1.74
1.72
1.691
1.696
1.701
1.691
1.672
1.667
1.686
1.681
1.652
1.657
1.676
1.676
1.662
1.657
1.672
1.681
1.662
1.657
1.681
1.686
1.672
1.652
1.652
1.652
1.623
1.588
1.584
1.588
1.584
1.574
1.593
1.652
1.711
1.774
1.887
2.028
2.146
2.239
2.312
2.375
2.405
2.366
2.317
2.263
2.185
2.072
1.955
1.857
1.784
1.691
1.613
1.588
1.588
1.588
1.588
1.613
1.652
1.667
1.647
1.647
1.667
1.662
1.642
1.628
1.642
1.657
1.637
1.632
1.652
1.662
1.652
1.637
1.647
1.662
1.647
1.623
1.637
1.652
1.647
1.637
1.642
1.667
1.667
1.647
1.652
1.672
1.667
1.652
1.647
1.662
1.672
1.647
1.632
1.652
1.662
1.652
1.637
1.647
1.662
1.642
1.623
1.632
1.652
1.662
1.672
1.701
1.74
1.755
1.745
1.74
1.75
1.73
1.696
1.667
1.676
1.686
1.672
1.676
1.72
1.745
1.745
1.73
1.735
1.745
1.725
1.701
1.711
1.73
1.73
1.72
1.725
1.745
1.745
1.716
1.72
1.745
1.75
1.745
1.74
1.75
1.755
1.725
1.72
1.74
1.745
1.73
1.72
1.725
1.75
1.74
1.72
1.73
1.74
1.73
1.711
1.701
1.72
1.716
1.691
1.696
1.716
1.72
1.711
1.711
1.725
1.74
1.716
1.706
1.72
1.716
1.691
1.672
1.676
1.691
1.676
1.657
1.672
1.691
1.691
1.676
1.672
1.686
1.676
1.652
1.657
1.681
1.686
1.676
1.672
1.686
1.686
1.647
1.632
1.652
1.662
1.662
1.652
1.662
1.681
1.667
1.647
1.662
1.672
1.667
1.652
1.652
1.676
1.672
1.647
1.652
1.672
1.667
1.657
1.642
1.652
1.662
1.637
1.632
1.652
1.667
1.662
1.657
1.672
1.691
1.681
1.667
1.681
1.696
1.686
1.672
1.672
1.696
1.691
1.662
1.657
1.672
1.672
1.657
1.652
1.662
1.667
1.642
1.637
1.662
1.672
1.662
1.657
1.672
1.691
1.672
1.647
1.657
1.667
1.657
1.642
1.642
1.662
1.662
1.637
1.647
1.676
1.681
1.676
1.667
1.681
1.686
1.657
1.647
1.667
1.672
1.667
1.657
1.667
1.691
1.676
1.657
1.667
1.676
1.667
1.657
1.657
1.676
1.676
1.652
1.657
1.681
1.681
1.672
1.667
1.681
1.686
1.662
1.652
1.672
1.686
1.681
1.672
1.686
1.706
1.696
1.686
1.711
1.735
1.73
1.716
1.716
1.73
1.725
1.706
1.716
1.74
1.74
1.725
1.711
1.72
1.725
1.691
1.672
1.681
1.676
1.657
1.642
1.657
1.676
1.662
1.642
1.652
1.667
1.662
1.647
1.652
1.672
1.667
1.642
1.642
1.667
1.667
1.657
1.647
1.652
1.647
1.608
1.584
1.588
1.584
1.569
1.579
1.628
1.711
1.789
1.887
2.028
2.165
2.258
2.312
2.351
2.375
2.351
2.283
2.214
2.141
2.043
1.935
1.838
1.774
1.72
1.647
1.608
1.618
1.628
1.632
1.637
1.662
1.686
1.667
1.642
1.647
1.657
1.647
1.637
1.637
1.662
1.657
1.632
1.637
1.657
1.657
1.647
1.642
1.667
1.676
1.652
1.647
1.662
1.662
1.647
1.632
1.642
1.662
1.652
1.632
1.652
1.676
1.676
1.667
1.667
1.691
1.686
1.657
1.662
1.681
1.681
1.672
1.667
1.691
1.701
1.676
1.672
1.691
1.701
1.691
1.681
1.686
1.706
1.686
1.672
1.686
1.711
1.706
1.696
1.701
1.725
1.725
1.701
1.711
1.735
1.74
1.73
1.725
1.745
1.755
1.725
1.711
1.725
1.725
1.72
1.706
1.72
1.74
1.725
1.72
1.74
1.76
1.75
1.74
1.745
1.764
1.76
1.73
1.735
1.755
1.76
1.745
1.735
1.755
1.764
1.735
1.725
1.745
1.75
1.735
1.725
1.735
1.755
1.74
1.72
1.735
1.75
1.74
1.72
1.72
1.735
1.725
1.696
1.701
1.716
1.716
1.701
1.691
1.706
1.706
1.667
1.652
1.662
1.662
1.647
1.632
1.642
1.667
1.662
1.652
1.672
1.686
1.681
1.667
1.672
1.691
1.676
1.652
1.657
1.681
1.686
1.676
1.672
1.691
1.696
1.667
1.657
1.672
1.672
1.662
1.647
1.657
1.672
1.657
1.642
1.662
1.681
1.676
1.662
1.662
1.681
1.672
1.647
1.657
1.676
1.681
1.676
1.672
1.691
1.701
1.672
1.662
1.681
1.691
1.681
1.676
1.696
1.716
1.691
1.672
1.681
1.691
1.672
1.652
1.652
1.676
1.676
1.657
1.667
1.691
1.701
1.691
1.681
1.691
1.696
1.667
1.662
1.681
1.691
1.681
1.667
1.681
1.691
1.667
1.647
1.662
1.681
1.676
1.667
1.672
1.691
1.686
1.662
1.667
1.691
1.686
1.676
1.672
1.691
1.701
1.676
1.676
1.696
1.706
1.701
1.691
1.706
1.73
1.716
1.701
1.72
1.74
1.735
1.72
1.725
1.75
1.745
1.725
1.735
1.755
1.75
1.73
1.716
1.725
1.72
1.686
1.676
1.696
1.696
1.681
1.667
1.672
1.686
1.667
1.652
1.667
1.686
1.681
1.667
1.672
1.691
1.681
1.652
1.657
1.672
1.662
1.642
1.623
1.628
1.613
1.574
1.554
1.574
1.588
1.608
1.652
1.75
1.872
1.975
2.082
2.204
2.297
2.346
2.361
2.361
2.346
2.283
2.175
2.087
2.009
1.916
1.818
1.745
1.701
1.662
1.613
1.598
1.623
1.642
1.652
1.652
1.672
1.691
1.662
1.637
1.647
1.657
1.652
1.637
1.637
1.657
1.652
1.628
1.628
1.647
1.642
1.632
1.632
1.657
1.662
1.637
1.632
1.652
1.662
1.647
1.637
1.647
1.662
1.642
1.628
1.642
1.662
1.657
1.647
1.652
1.672
1.662
1.637
1.642
1.662
1.667
1.657
1.657
1.676
1.686
1.667
1.662
1.681
1.691
1.681
1.667
1.676
1.686
1.672
1.662
1.681
1.701
1.696
1.681
1.686
1.706
1.701
1.676
1.686
1.706
1.711
1.701
1.701
1.72
1.73
1.706
1.706
1.725
1.735
1.725
1.72
1.74
1.76
1.745
1.73
1.745
1.764
1.755
1.74
1.745
1.76
1.755
1.725
1.73
1.745
1.745
1.735
1.73
1.755
1.76
1.735
1.73
1.75
1.75
1.73
1.711
1.716
1.725
1.706
1.691
1.711
1.735
1.735
1.725
1.725
1.74
1.725
1.691
1.691
1.706
1.696
1.681
1.681
1.701
1.706
1.681
1.676
1.686
1.686
1.672
1.657
1.672
1.686
1.667
1.647
1.662
1.676
1.662
1.652
1.652
1.676
1.667
1.647
1.662
1.681
1.681
1.667
1.657
1.676
1.681
1.652
1.652
1.676
1.681
1.676
1.662
1.676
1.691
1.672
1.657
1.672
1.691
1.686
1.672
1.676
1.696
1.691
1.667
1.676
1.696
1.686
1.676
1.662
1.681
1.681
1.657
1.652
1.667
1.672
1.667
1.657
1.676
1.696
1.676
1.662
1.676
1.686
1.676
1.662
1.662
1.681
1.672
1.642
1.647
1.662
1.667
1.657
1.657
1.681
1.691
1.672
1.676
1.701
1.711
1.696
1.686
1.696
1.711
1.696
1.686
1.711
1.73
1.735
1.73
1.745
1.769
1.76
1.735
1.745
1.769
1.769
1.755
1.75
1.769
1.769
1.735
1.725
1.74
1.74
1.72
1.706
1.711
1.72
1.691
1.672
1.681
1.691
1.676
1.662
1.672
1.691
1.686
1.667
1.681
1.701
1.701
1.691
1.686
1.701
1.696
1.662
1.652
1.667
1.672
1.657
1.642
1.652
1.667
1.642
1.632
1.657
1.686
1.716
1.755
1.828
1.926
1.984
2.019
2.072
2.121
2.131
2.107
2.067
2.038
1.979
1.891
1.823
1.779
1.73
1.676
1.632
1.632
1.647
1.632
1.637
1.662
1.691
1.691
1.676
1.676
1.691
1.676
1.652
1.662
1.681
1.681
1.672
1.667
1.691
1.696
1.672
1.672
1.686
1.691
1.676
1.662
1.672
1.686
1.667
1.657
1.676
1.701
1.696
1.686
1.696
1.716
1.701
1.681
1.686
1.701
1.696
1.681
1.676
1.696
1.706
1.686
1.686
1.716
1.72
1.711
1.706
1.716
1.73
1.711
1.701
1.72
1.735
1.73
1.72
1.73
1.75
1.74
1.716
1.72
1.735
1.735
1.725
1.725
1.75
1.764
1.745
1.75
1.774
1.779
1.769
1.755
1.764
1.774
1.75
1.73
1.75
1.76
1.764
1.755
1.764
1.784
1.779
1.764
1.774
1.799
1.794
1.774
1.764
1.774
1.774
1.74
1.73
1.745
1.75
1.74
1.73
1.745
1.764
1.745
1.735
1.755
1.769
1.764
1.75
1.755
1.774
1.76
1.735
1.745
1.76
1.75
1.73
1.725
1.74
1.74
1.711
1.706
1.72
1.72
1.706
1.686
1.696
1.701
1.676
1.657
1.676
1.686
1.676
1.657
1.657
1.676
1.662
1.637
1.647
1.667
1.672
1.667
1.667
1.686
1.691
1.662
1.657
1.676
1.681
1.672
1.662
1.681
1.696
1.676
1.662
1.676
1.691
1.681
1.672
1.676
1.701
1.691
1.672
1.686
1.706
1.701
1.686
1.686
1.706
1.711
1.686
1.681
1.701
1.701
1.686
1.676
1.686
1.701
1.676
1.662
1.676
1.691
1.681
1.672
1.681
1.706
1.701
1.676
1.681
1.701
1.696
1.681
1.676
1.686
1.686
1.662
1.667
1.696
1.706
1.701
1.691
1.706
1.725
1.706
1.696
1.716
1.73
1.72
1.711
1.725
1.75
1.74
1.72
1.725
1.745
1.735
1.72
1.711
1.72
1.716
1.681
1.672
1.686
1.681
1.672
1.657
1.667
1.681
1.662
1.652
1.667
1.676
1.667
1.657
1.662
1.681
1.667
1.642
1.652
1.672
1.662
1.642
1.632
1.637
1.628
1.584
1.574
1.584
1.593
1.598
1.628
1.701
1.799
1.877
1.965
2.077
2.17
2.224
2.239
2.248
2.248
2.195
2.102
2.033
1.965
1.877
1.789
1.72
1.681
1.647
1.593
1.584
1.613
1.628
1.632
1.637
1.657
1.681
1.657
1.637
1.652
1.657
1.647
1.628
1.628
1.642
1.632
1.608
1.613
1.632
1.637
1.628
1.632
1.657
1.662
1.632
1.637
1.662
1.667
1.657
1.647
1.657
1.672
1.652
1.642
1.657
1.672
1.662
1.652
1.662
1.691
1.676
1.657
1.662
1.681
1.672
1.662
1.667
1.686
1.686
1.657
1.657
1.681
1.686
1.681
1.676
1.691
1.711
1.686
1.676
1.691
1.701
1.686
1.672
1.676
1.696
1.691
1.676
1.696
1.72
1.72
1.706
1.706
