Num1
1.647
1.618
1.613
1.632
1.637
1.637
1.637
1.652
1.672
1.667
1.667
1.691
1.701
1.686
1.667
1.657
1.657
1.632
1.603
1.608
1.632
1.637
1.637
1.647
1.667
1.672
1.637
1.623
1.632
1.628
1.613
1.618
1.647
1.681
1.676
1.662
1.672
1.676
1.662
1.642
1.642
1.652
1.642
1.632
1.652
1.686
1.696
1.696
1.691
1.711
1.716
1.701
1.711
1.735
1.74
1.725
1.716
1.725
1.735
1.706
1.681
1.676
1.672
1.652
1.628
1.623
1.642
1.637
1.628
1.647
1.672
1.667
1.652
1.637
1.642
1.642
1.623
1.628
1.657
1.667
1.657
1.647
1.652
1.657
1.623
1.603
1.613
1.628
1.628
1.623
1.632
1.657
1.657
1.642
1.642
1.647
1.632
1.618
1.613
1.623
1.632
1.618
1.628
1.647
1.652
1.642
1.637
1.657
1.672
1.652
1.647
1.672
1.696
1.706
1.72
1.755
1.808
1.838
1.857
1.901
1.945
1.955
1.94
1.926
1.921
1.887
1.794
1.716
1.652
1.584
1.51
1.452
1.417
1.403
1.373
1.378
1.422
1.471
1.496
1.51
1.53
1.554
1.554
1.544
1.564
1.593
1.603
1.613
1.623
1.652
1.667
1.652
1.662
1.691
1.696
1.696
1.691
1.706
1.73
1.711
1.691
1.696
1.696
1.681
1.662
1.667
1.686
1.686
1.672
1.691
1.716
1.716
1.696
1.691
1.701
1.701
1.672
1.672
1.691
1.701
1.696
1.696
1.716
1.735
1.706
1.676
1.681
1.686
1.681
1.672
1.681
1.706
1.706
1.706
1.735
1.764
1.769
1.76
1.75
1.764
1.76
1.73
1.725
1.74
1.745
1.74
1.745
1.76
1.769
1.745
1.725
1.735
1.735
1.72
1.711
1.725
1.755
1.76
1.755
1.774
1.799
1.804
1.794
1.784
1.794
1.789
1.769
1.779
1.808
1.818
1.813
1.804
1.813
1.823
1.799
1.784
1.799
1.808
1.804
1.799
1.813
1.838
1.833
1.818
1.833
1.848
1.843
1.828
1.818
1.823
1.818
1.794
1.799
1.823
1.833
1.823
1.808
1.813
1.818
1.774
1.74
1.74
1.74
1.725
1.706
1.701
1.72
1.711
1.686
1.686
1.696
1.686
1.667
1.672
1.681
1.676
1.642
1.642
1.657
1.657
1.637
1.623
1.628
1.637
1.613
1.603
1.608
1.618
1.613
1.613
1.637
1.672
1.672
1.662
1.681
1.701
1.706
1.681
1.662
1.657
1.642
1.603
1.598
1.618
1.623
1.623
1.628
1.647
1.667
1.647
1.642
1.657
1.662
1.647
1.623
1.618
1.632
1.628
1.608
1.623
1.647
1.647
1.642
1.642
1.657
1.657
1.628
1.623
1.637
1.632
1.628
1.632
1.662
1.681
1.662
1.652
1.662
1.662
1.637
1.618
1.613
1.623
1.603
1.593
1.618
1.647
1.652
1.647
1.647
1.667
1.672
1.652
1.647
1.667
1.662
1.652
1.642
1.652
1.667
1.647
1.642
1.662
1.676
1.667
1.662
1.662
1.681
1.657
1.628
1.623
1.632
1.623
1.623
1.632
1.657
1.662
1.647
1.662
1.686
1.686
1.667
1.647
1.652
1.657
1.637
1.632
1.657
1.676
1.672
1.667
1.676
1.691
1.676
1.647
1.642
1.642
1.623
1.608
1.608
1.637
1.657
1.642
1.657
1.681
1.691
1.686
1.676
1.681
1.681
1.652
1.642
1.657
1.667
1.662
1.657
1.667
1.681
1.667
1.647
1.657
1.667
1.652
1.632
1.628
1.652
1.657
1.647
1.662
1.691
1.696
1.696
1.691
1.701
1.701
1.672
1.657
1.672
1.681
1.681
1.691
1.72
1.75
1.745
1.725
1.735
1.75
1.735
1.706
1.676
1.676
1.676
1.657
1.662
1.686
1.691
1.686
1.686
1.701
1.711
1.681
1.662
1.662
1.657
1.642
1.632
1.637
1.657
1.657
1.652
1.672
1.691
1.681
1.667
1.662
1.681
1.681
1.657
1.657
1.672
1.676
1.657
1.637
1.642
1.642
1.623
1.623
1.652
1.676
1.691
1.691
1.706
1.716
1.696
1.662
1.662
1.667
1.657
1.642
1.642
1.667
1.667
1.637
1.637
1.647
1.652
1.642
1.642
1.657
1.672
1.652
1.652
1.691
1.725
1.745
1.774
1.823
1.877
1.901
1.906
1.935
1.95
1.931
1.877
1.828
1.784
1.72
1.637
1.584
1.554
1.505
1.457
1.427
1.432
1.442
1.417
1.417
1.452
1.481
1.496
1.51
1.544
1.588
1.598
1.598
1.623
1.647
1.652
1.647
1.652
1.676
1.686
1.672
1.681
1.706
1.706
1.691
1.681
1.691
1.706
1.686
1.681
1.701
1.72
1.72
1.716
1.725
1.74
1.73
1.711
1.72
1.725
1.711
1.681
1.672
1.681
1.681
1.662
1.672
1.696
1.706
1.701
1.706
1.725
1.735
1.711
1.701
1.725
1.74
1.74
1.735
1.74
1.755
1.745
1.73
1.74
1.755
1.75
1.735
1.735
1.755
1.755
1.73
1.735
1.755
1.764
1.76
1.76
1.779
1.799
1.774
1.76
1.764
1.764
1.75
1.73
1.735
1.755
1.745
1.74
1.769
1.799
1.813
1.823
1.838
1.862
1.862
1.838
1.833
1.848
1.848
1.838
1.838
1.852
1.862
1.843
1.833
1.852
1.857
1.843
1.833
1.848
1.872
1.872
1.867
1.887
1.901
1.887
1.857
1.843
1.843
1.823
1.789
1.784
1.804
1.808
1.804
1.799
1.804
1.804
1.769
1.75
1.76
1.76
1.74
1.72
1.716
1.72
1.696
1.667
1.667
1.672
1.657
1.642
1.647
1.667
1.672
1.657
1.667
1.686
1.686
1.667
1.647
1.657
1.657
1.628
1.603
1.618
1.623
1.623
1.623
1.642
1.672
1.667
1.662
1.676
1.686
1.672
1.647
1.637
1.647
1.642
1.618
1.618
1.637
1.647
1.652
1.652
1.672
1.681
1.662
1.652
1.667
1.681
1.672
1.662
1.672
1.681
1.662
1.647
1.662
1.676
1.662
1.647
1.647
1.662
1.652
1.623
1.632
1.657
1.657
1.642
1.632
1.642
1.652
1.632
1.623
1.637
1.642
1.632
1.628
1.632
1.652
1.637
1.618
1.632
1.642
1.642
1.632
1.647
1.676
1.681
1.662
1.672
1.691
1.686
1.672
1.662
1.667
1.681
1.662
1.662
1.686
1.706
1.696
1.672
1.662
1.662
1.637
1.623
1.642
1.672
1.686
1.696
1.716
1.745
1.745
1.72
1.711
1.711
1.686
1.647
1.623
1.618
1.623
1.608
1.608
1.632
1.642
1.642
1.637
1.652
1.667
1.647
1.623
1.632
1.647
1.647
1.652
1.676
1.706
1.706
1.672
1.667
1.667
1.652
1.628
1.618
1.637
1.657
1.647
1.657
1.691
1.706
1.691
1.672
1.662
1.657
1.618
1.588
1.593
1.608
1.618
1.618
1.632
1.676
1.706
1.706
1.725
1.75
1.74
1.711
1.686
1.681
1.662
1.613
1.593
1.608
1.618
1.613
1.613
1.632
1.662
1.652
1.632
1.647
1.667
1.662
1.657
1.657
1.676
1.667
1.637
1.642
1.672
1.686
1.686
1.681
1.696
1.701
1.686
1.681
1.701
1.701
1.691
1.681
1.701
1.73
1.725
1.706
1.72
1.73
1.72
1.701
1.701
1.716
1.716
1.691
1.701
1.716
1.711
1.701
1.696
1.706
1.706
1.662
1.647
1.657
1.657
1.642
1.637
1.652
1.672
1.662
1.642
1.647
1.652
1.637
1.618
1.613
1.628
1.628
1.613
1.628
1.657
1.662
1.657
1.652
1.662
1.672
1.652
1.657
1.686
1.701
1.696
1.691
1.701
1.72
1.701
1.676
1.686
1.691
1.676
1.657
1.647
1.652
1.642
1.618
1.623
1.647
1.667
1.676
1.691
1.73
1.769
1.779
1.808
1.867
1.911
1.935
1.945
1.96
1.97
1.931
1.867
1.813
1.745
1.657
1.564
1.505
1.481
1.452
1.417
1.432
1.471
1.486
1.486
1.491
1.51
1.52
1.5
1.505
1.54
1.574
1.598
1.618
1.662
1.711
1.72
1.716
1.725
1.73
1.711
1.691
1.681
1.691
1.681
1.642
1.642
1.667
1.681
1.691
1.706
1.74
1.76
1.735
1.735
1.764
1.774
1.755
1.725
1.716
1.716
1.686
1.662
1.667
1.681
1.681
1.681
1.691
1.725
1.73
1.716
1.725
1.74
1.73
1.706
1.696
1.706
1.725
1.72
1.725
1.755
1.75
1.716
1.676
1.662
1.662
1.647
1.652
1.701
1.755
1.784
1.799
1.808
1.818
1.789
1.725
1.696
1.691
1.701
1.711
1.74
1.789
1.828
1.823
1.833
1.852
1.843
1.813
1.789
1.794
1.808
1.799
1.794
1.818
1.838
1.838
1.838
1.843
1.862
1.852
1.823
1.818
1.818
1.799
1.769
1.755
1.774
1.794
1.789
1.794
1.813
1.823
1.818
1.813
1.828
1.843
1.833
1.828
1.848
1.867
1.857
1.838
1.823
1.828
1.808
1.769
1.769
1.794
1.799
1.789
1.779
1.779
1.769
1.725
1.701
1.706
1.701
1.686
1.676
1.681
1.691
1.667
1.647
1.657
1.662
1.642
1.632
1.637
1.657
1.662
1.652
1.672
1.696
1.696
1.681
1.676
1.691
1.696
1.672
1.667
1.696
1.72
1.73
1.735
1.74
1.74
1.706
1.662
1.657
1.652
1.632
1.618
1.623
1.652
1.662
1.642
1.657
1.676
1.676
1.657
1.642
1.642
1.647
1.618
1.608
1.618
1.618
1.603
1.593
1.608
1.637
1.637
1.637
1.667
1.691
1.691
1.681
1.676
1.686
1.672
1.647
1.657
1.672
1.672
1.657
1.647
1.662
1.667
1.637
1.632
1.652
1.657
1.647
1.642
1.652
1.672
1.657
1.652
1.672
1.691
1.691
1.676
1.681
1.701
1.691
1.662
1.662
1.676
1.672
1.657
1.652
1.672
1.681
1.652
1.647
1.652
1.647
1.623
1.613
1.632
1.667
1.672
1.681
1.72
1.745
1.745
1.73
1.72
1.725
1.696
1.652
1.647
1.662
1.657
1.642
1.642
1.657
1.672
1.657
1.662
1.681
1.681
1.667
1.657
1.662
1.667
1.637
1.608
1.613
1.628
1.642
1.652
1.676
1.701
1.701
1.681
1.691
1.711
1.711
1.691
1.681
1.691
1.701
1.681
1.686
1.706
1.711
1.691
1.676
1.676
1.676
1.647
1.628
1.652
1.686
1.696
1.696
1.701
1.72
1.716
1.686
1.676
1.681
1.667
1.642
1.632
1.662
1.686
1.672
1.667
1.681
1.681
1.662
1.647
1.657
1.667
1.647
1.642
1.662
1.686
1.686
1.676
1.681
1.696
1.691
1.667
1.676
1.701
1.711
1.716
1.72
1.745
1.755
1.73
1.725
1.745
1.745
1.725
1.706
1.706
1.716
1.696
1.696
1.716
1.73
1.72
1.701
1.691
1.696
1.662
1.618
1.618
1.628
1.632
1.632
1.642
1.676
1.696
1.681
1.672
1.672
1.657
1.628
1.603
1.608
1.618
1.603
1.593
1.618
1.652
1.662
1.662
1.667
1.686
1.681
1.662
1.676
1.696
1.696
1.686
1.676
1.686
1.686
1.657
1.652
1.676
1.676
1.667
1.652
1.667
1.691
1.676
1.662
1.686
1.711
1.73
1.75
1.794
1.852
1.877
1.877
1.901
1.921
1.921
1.906
1.891
1.887
1.862
1.784
1.72
1.667
1.603
1.525
1.461
1.422
1.408
1.388
1.383
1.417
1.452
1.466
1.476
1.51
1.559
1.579
1.579
1.603
1.637
1.652
1.652
1.657
1.672
1.676
1.662
1.667
1.696
1.716
1.711
1.701
1.706
1.701
1.657
1.623
1.628
1.632
1.623
1.613
1.632
1.676
1.701
1.706
1.73
1.755
1.755
1.73
1.706
1.701
1.676
1.632
1.618
1.618
1.618
1.618
1.623
1.652
1.686
1.676
1.681
1.706
1.711
1.667
1.628
1.628
1.662
1.676
1.686
1.73
1.779
1.808
1.818
1.823
1.828
1.808
1.755
1.73
1.735
1.735
1.73
1.73
1.75
1.764
1.74
1.72
1.735
1.755
1.755
1.75
1.76
1.779
1.774
1.755
1.764
1.784
1.784
1.789
1.804
1.838
1.852
1.833
1.823
1.833
1.828
1.813
1.804
1.818
1.833
1.823
1.828
1.857
1.872
1.857
1.833
1.818
1.818
1.794
1.764
1.784
1.813
1.828
1.828
1.828
1.848
1.848
1.818
1.799
1.804
1.789
1.764
1.735
1.725
1.725
1.706
1.696
1.711
1.725
1.735
1.74
1.76
1.779
1.764
1.73
1.72
1.72
1.696
1.667
1.662
1.686
1.701
1.681
1.681
1.706
1.711
1.691
1.676
1.672
1.667
1.632
1.618
1.632
1.642
1.637
1.628
1.637
1.662
1.657
1.647
1.662
1.681
1.676
1.652
1.637
1.637
1.623
1.584
1.564
1.574
1.584
1.579
1.574
1.588
1.613
1.618
1.623
1.652
1.662
1.652
1.637
1.637
1.647
1.632
1.618
1.628
1.652
1.657
1.662
1.662
1.681
1.686
1.662
1.657
1.672
1.672
1.667
1.657
1.672
1.681
1.657
1.637
1.647
1.647
1.623
1.588
1.588
1.613
1.628
1.637
1.667
1.701
1.716
1.716
1.716
1.72
1.701
1.642
1.618
1.623
1.623
1.608
1.598
1.628
1.667
1.662
1.662
1.676
1.676
1.662
1.637
1.628
1.632
1.603
1.569
1.579
1.608
1.632
1.652
1.681
1.72
1.735
1.711
1.696
1.696
1.676
1.652
1.628
1.632
1.642
1.637
1.647
1.696
1.73
1.72
1.691
1.662
1.647
1.608
1.574
1.584
1.608
1.618
1.618
1.637
1.672
1.696
1.686
1.696
1.72
1.716
1.691
1.662
1.647
1.637
1.608
1.588
1.608
1.632
1.652
1.672
1.701
1.735
1.73
1.701
1.696
1.691
1.672
1.642
1.613
1.598
1.584
1.559
1.564
1.584
1.588
1.579
1.598
1.637
1.672
1.667
1.662
1.686
1.701
1.696
1.681
1.672
1.667
1.642
1.603
1.588
1.588
1.593
1.603
1.632
1.676
1.696
1.686
1.701
1.72
1.701
1.657
1.632
1.637
1.657
1.647
1.652
1.686
1.716
1.725
1.725
1.73
1.74
1.72
1.691
1.691
1.706
1.696
1.681
1.672
1.672
1.652
1.613
1.618
1.647
1.662
1.652
1.642
1.662
1.676
1.652
1.632
1.628
1.603
1.554
1.52
1.51
1.515
1.491
1.466
1.481
1.525
1.564
1.598
1.628
1.662
1.672
1.642
1.637
1.657
1.662
1.652
1.647
1.667
1.691
1.676
1.662
1.672
1.672
1.652
1.647
1.676
1.711
1.711
1.691
1.711
1.75
1.764
1.779
1.818
1.877
1.906
1.891
1.877
1.862
1.823
1.769
1.716
1.681
1.647
1.593
1.554
1.525
1.491
1.437
1.398
1.398
1.442
1.471
1.51
1.588
1.667
1.706
1.706
1.691
1.681
1.657
1.613
1.613
1.652
1.676
1.681
1.681
1.701
1.716
1.691
1.672
1.681
1.672
1.642
1.618
1.632
1.667
1.672
1.667
1.701
1.74
1.755
1.75
1.735
1.74
1.725
1.686
1.681
1.711
1.72
1.711
1.681
1.667
1.652
1.608
1.574
1.579
1.608
1.637
1.662
1.686
1.706
1.691
1.662
1.657
1.652
1.637
1.628
1.637
1.676
1.701
1.696
1.711
1.725
1.725
1.716
1.716
1.73
1.74
1.72
1.716
1.74
1.74
1.706
1.681
1.681
1.711
1.711
1.691
1.691
1.701
1.696
1.691
1.706
1.745
1.769
1.769
1.789
1.799
1.76
1.686
1.603
1.559
1.535
1.515
1.554
1.637
1.72
1.784
1.828
1.862
1.882
1.848
1.794
1.764
1.745
1.725
1.725
1.764
1.833
1.882
1.882
1.891
1.906
1.896
1.862
1.823
1.794
1.769
1.716
1.691
1.706
1.72
1.725
1.73
1.75
1.764
1.73
1.676
1.647
1.608
1.54
1.476
1.466
1.51
1.564
1.603
1.662
1.711
1.706
1.652
1.588
1.569
1.569
1.535
1.53
1.574
1.642
1.711
1.76
1.789
1.784
1.716
1.637
1.603
1.608
1.613
1.628
1.652
1.686
1.706
1.706
1.716
1.73
1.72
1.691
1.652
1.632
1.623
1.579
1.549
1.549
1.564
1.584
1.608
1.637
1.667
1.647
1.613
1.598
1.584
1.559
1.54
1.544
1.574
1.588
1.579
1.593
1.613
1.598
1.564
1.564
1.608
1.662
1.686
1.725
1.784
1.808
1.789
1.73
1.672
1.623
1.559
1.52
1.54
1.569
1.584
1.598
1.623
1.657
1.662
1.637
1.623
1.608
1.574
1.54
1.525
1.544
1.559
1.54
1.544
1.593
1.628
1.642
1.642
1.647
1.667
1.652
1.637
1.642
1.647
1.623
1.613
1.618
1.632
1.618
1.598
1.628
1.691
1.72
1.73
1.745
1.774
1.789
1.755
1.72
1.706
1.672
1.628
1.584
1.574
1.588
1.588
1.588
1.628
1.667
1.686
1.691
1.701
1.716
1.701
1.662
1.647
1.652
1.637
1.598
1.564
1.54
1.505
1.466
1.471
1.53
1.603
1.667
1.745
1.833
1.906
1.926
1.916
1.906
1.877
1.808
1.73
1.676
1.662
1.637
1.598
1.598
1.623
1.637
1.647
1.667
1.711
1.745
1.74
1.745
1.764
1.769
1.76
1.74
1.73
1.73
1.701
1.676
1.686
1.701
1.696
1.691
1.701
1.73
1.73
1.706
1.701
1.716
1.696
1.676
1.672
1.701
1.73
1.725
1.73
1.755
1.764
1.745
1.716
1.691
1.672
1.628
1.584
1.584
1.593
1.598
1.618
1.652
1.706
1.73
1.73
1.75
1.774
1.76
1.691
1.623
1.608
1.618
1.623
1.642
1.686
1.725
1.755
1.779
1.808
1.823
1.804
1.769
1.769
1.784
1.784
1.774
1.745
1.711
1.647
1.579
1.554
1.574
1.608
1.657
1.725
1.813
1.896
1.931
1.955
1.975
1.955
1.906
1.852
1.804
1.755
1.667
1.588
1.554
1.535
1.5
1.476
1.476
1.515
1.549
1.564
1.593
1.613
1.593
1.559
1.53
1.535
1.544
1.535
1.544
1.588
1.632
1.652
1.672
1.701
1.725
1.711
1.691
1.706
1.716
1.701
1.676
1.667
1.686
1.691
1.691
1.716
1.76
1.789
1.813
1.833
1.843
1.818
1.74
1.681
1.676
1.686
1.696
1.716
1.76
1.804
1.808
1.794
1.789
1.774
1.735
1.701
1.686
1.701
1.716
1.716
1.745
1.789
1.808
1.808
1.813
1.833
1.843
1.808
1.789
1.779
1.75
1.706
1.662
1.647
1.662
1.676
1.706
1.76
1.813
1.838
1.852
1.867
1.891
1.877
1.838
1.823
1.813
1.794
1.769
1.755
1.764
1.769
1.75
1.755
1.794
1.828
1.843
1.848
1.867
1.887
1.867
1.843
1.848
1.848
1.833
1.804
1.789
1.789
1.774
1.76
1.779
1.813
1.838
1.852
1.877
1.921
1.95
1.935
1.921
1.916
1.891
1.843
1.808
1.799
1.804
1.794
1.789
1.818
1.848
1.862
1.862
1.867
1.877
1.857
1.818
1.799
1.789
1.764
1.735
1.72
1.725
1.72
1.691
1.686
1.706
1.72
1.725
1.72
1.73
1.74
1.716
1.691
1.696
1.701
1.686
1.667
1.667
1.686
1.691
1.672
1.662
1.647
1.588
1.535
1.51
1.53
1.564
1.574
1.618
1.686
1.74
1.769
1.774
1.769
1.745
1.672
1.608
1.593
1.603
1.618
1.637
1.672
1.716
1.735
1.725
1.73
1.735
1.711
1.672
1.637
1.628
1.618
1.584
1.584
1.618
1.647
1.667
1.676
1.691
1.701
1.676
1.657
1.657
1.642
1.598
1.554
1.544
1.574
1.593
1.598
1.632
1.676
1.701
1.716
1.72
1.745
1.75
1.716
1.691
1.681
1.667
1.647
1.628
1.632
1.647
1.632
1.632
1.662
1.691
1.711
1.72
1.735
1.76
1.76
1.735
1.73
1.74
1.73
1.716
1.706
1.711
1.711
1.681
1.686
1.701
1.696
1.676
1.657
1.662
1.676
1.662
1.647
1.667
1.676
1.667
1.647
1.662
1.701
1.706
1.691
1.711
1.745
1.75
1.74
1.735
1.745
1.735
1.696
1.676
1.686
1.696
1.691
1.681
1.691
1.706
1.681
1.657
1.676
1.701
1.706
1.716
1.74
1.769
1.769
1.74
1.73
1.73
1.73
1.72
1.725
1.745
1.755
1.74
1.75
1.779
1.789
1.774
1.755
1.755
1.769
1.75
1.74
1.764
1.784
1.784
1.774
1.774
1.784
1.769
1.735
1.73
1.74
1.735
1.725
1.72
1.74
1.76
1.75
1.755
1.784
1.789
1.774
1.745
1.72
1.701
1.662
1.647
1.676
1.706
1.716
1.72
1.74
1.769
1.769
1.74
1.73
1.72
1.686
1.647
1.632
1.647
1.667
1.662
1.676
1.716
1.735
1.73
1.72
1.716
1.706
1.667
1.637
1.642
1.647
1.657
1.667
1.691
1.716
1.711
1.701
1.72
1.735
1.72
1.701
1.691
1.706
1.716
1.696
1.701
1.725
1.745
1.75
1.764
1.804
1.848
1.862
1.882
1.911
1.926
1.901
1.857
1.818
1.779
1.711
1.613
1.549
1.505
1.471
1.457
1.466
1.5
1.52
1.505
1.505
1.53
1.54
1.53
1.51
1.515
1.535
1.535
1.54
1.588
1.632
1.642
1.642
1.657
1.686
1.701
1.696
1.716
1.735
1.73
1.711
1.701
1.716
1.725
1.716
1.72
1.75
1.764
1.769
1.774
1.784
1.789
1.76
1.725
1.725
1.725
1.716
1.711
1.72
1.745
1.745
1.73
1.745
1.76
1.755
1.745
1.75
1.769
1.774
1.75
1.75
1.779
1.794
1.794
1.784
1.799
1.813
1.794
1.774
1.784
1.794
1.789
1.779
1.779
1.779
1.755
1.74
1.764
1.804
1.818
1.823
1.838
1.867
1.877
1.857
1.857
1.867
1.862
1.848
1.838
1.857
1.882
1.872
1.857
1.872
1.882
1.872
1.867
1.877
1.906
1.906
1.896
1.906
1.926
1.926
1.906
1.891
1.901
1.906
1.882
1.882
1.896
1.891
1.872
1.867
1.882
1.906
1.891
1.877
1.887
1.896
1.882
1.848
1.828
1.828
1.813
1.789
1.794
1.813
1.808
1.794
1.779
1.784
1.774
1.735
1.73
1.75
1.764
1.76
1.75
1.755
1.76
1.735
1.706
1.706
1.701
1.672
1.642
1.637
1.647
1.632
1.618
1.637
1.667
1.676
1.681
1.691
1.72
1.725
1.701
1.691
1.701
1.701
1.686
1.681
1.691
1.706
1.681
1.657
1.657
1.662
1.652
1.642
1.652
1.667
1.652
1.623
1.628
1.647
1.642
1.637
1.637
1.662
1.672
1.652
1.647
1.662
1.667
1.647
1.618
1.618
1.628
1.608
1.603
1.628
1.642
1.637
1.628
1.623
1.623
1.603
1.579
1.588
1.608
1.618
1.623
1.642
1.667
1.681
1.662
1.662
1.676
1.662
1.628
1.603
1.603
1.603
1.574
1.559
1.574
1.584
1.574
1.564
1.579
1.618
1.623
1.613
1.637
1.662
1.662
1.652
1.647
1.662
1.662
1.632
1.628
1.647
1.662
1.657
1.647
1.652
1.652
1.623
1.603
1.608
1.613
1.603
1.593
1.593
1.608
1.593
1.579
1.593
1.623
1.632
1.642
1.667
1.711
1.73
1.711
1.716
1.735
1.735
1.701
1.662
1.642
1.632
1.598
1.574
1.584
1.603
1.613
1.618
1.642
1.676
1.681
1.667
1.676
1.681
1.642
1.608
1.603
1.628
1.637
1.623
1.628
1.657
1.662
1.662
1.667
1.691
1.716
1.701
1.701
1.72
1.73
1.716
1.696
1.676
1.681
1.662
1.637
1.652
1.681
1.701
1.716
1.725
1.755
1.755
1.725
1.716
1.72
1.72
1.711
1.706
1.725
1.745
1.72
1.711
1.72
1.72
1.706
1.676
1.662
1.667
1.647
1.618
1.623
1.632
1.613
1.579
1.564
1.588
1.593
1.554
1.54
1.559
1.574
1.574
1.574
1.579
1.579
1.544
1.525
1.549
1.569
1.574
1.569
1.574
1.574
1.554
1.535
1.554
1.574
1.574
1.579
1.598
1.642
1.672
1.667
1.672
1.681
1.676
1.652
1.637
1.642
1.657
1.632
1.623
1.642
1.657
1.647
1.632
1.642
1.672
1.681
1.691
1.735
1.784
1.813
1.828
1.848
1.877
1.887
1.857
1.838
1.828
1.789
1.725
1.657
1.613
1.579
1.53
1.491
1.476
1.461
1.432
1.413
1.422
1.452
1.452
1.452
1.486
1.54
1.569
1.588
1.618
1.652
1.667
1.647
1.657
1.676
1.681
1.676
1.672
1.681
1.686
1.657
1.642
1.662
1.672
1.667
1.662
1.672
1.696
1.701
1.696
1.706
1.72
1.711
1.691
1.681
1.696
1.696
1.672
1.676
1.711
1.72
1.716
1.711
1.72
1.735
1.711
1.696
1.711
1.725
1.72
1.716
1.725
1.74
1.73
1.711
1.72
1.735
1.725
1.701
1.696
1.706
1.701
1.667
1.662
1.686
1.706
1.706
1.711
1.73
1.745
1.72
1.711
1.72
1.72
1.706
1.696
1.701
1.725
1.72
1.711
1.725
1.745
1.74
1.735
1.74
1.76
1.76
1.73
1.725
1.74
1.745
1.745
1.745
1.769
1.799
1.794
1.789
1.813
1.833
1.828
1.823
1.833
1.857
1.848
1.838
1.857
1.872
1.857
1.838
1.818
1.818
1.808
1.779
1.779
1.799
1.799
1.794
1.784
1.789
1.789
1.755
1.74
1.75
1.75
1.735
1.711
1.716
1.725
1.701
1.667
1.662
1.667
1.657
1.642
1.642
1.662
1.672
1.652
1.662
1.676
1.672
1.637
1.613
1.603
1.603
1.584
1.588
1.618
1.647
1.647
1.642
1.652
1.662
1.637
1.608
1.608
1.618
1.623
1.628
1.637
1.672
1.676
1.652
1.642
1.657
1.657
1.642
1.637
1.647
1.662
1.642
1.637
1.647
1.647
1.632
1.618
1.623
1.637
1.628
1.613
1.628
1.642
1.642
1.637
1.637
1.652
1.652
1.623
1.623
1.632
1.632
1.618
1.603
1.593
1.598
1.584
1.593
1.618
1.628
1.623
1.623
1.632
1.647
1.628
1.598
1.608
1.628
1.642
1.647
1.662
1.691
1.696
1.667
1.667
1.672
1.657
1.628
1.613
1.628
1.647
1.632
1.637
1.667
1.686
1.676
1.662
1.657
1.657
1.628
1.598
1.608
1.623
1.618
1.618
1.632
1.672
1.686
1.662
1.662
1.672
1.667
1.657
1.652
1.672
1.696
1.681
1.676
1.686
1.691
1.681
1.672
1.672
1.686
1.667
1.642
1.647
1.662
1.652
1.632
1.613
1.618
1.608
1.584
1.603
1.637
1.652
1.657
1.657
1.681
1.701
1.681
1.676
1.701
1.711
1.701
1.686
1.686
1.691
1.667
1.632
1.632
1.647
1.657
1.667
1.686
1.725
1.74
1.735
1.745
1.755
1.74
1.706
1.681
1.676
1.681
1.672
1.686
1.72
1.74
1.735
1.73
1.735
1.745
1.725
1.691
1.696
1.711
1.706
1.701
1.706
1.725
1.725
1.701
1.706
1.73
1.73
1.711
1.696
1.696
1.701
1.676
1.667
1.676
1.667
1.652
1.647
1.662
1.691
1.681
1.657
1.662
1.667
1.657
1.637
1.628
1.637
1.632
1.603
1.598
1.613
1.618
1.613
1.613
1.628
1.642
1.623
1.623
1.642
1.647
1.632
1.613
1.613
1.623
1.618
1.608
1.628
1.647
1.647
1.637
1.642
1.662
1.667
1.652
1.667
1.696
1.716
1.72
1.735
1.769
1.808
1.808
1.828
1.877
1.906
1.891
1.857
1.823
1.784
1.711
1.628
1.579
1.544
1.496
1.447
1.427
1.432
1.422
1.393
1.403
1.427
1.447
1.461
1.486
1.53
1.569
1.564
1.569
1.598
1.613
1.608
1.608
1.618
1.642
1.632
1.623
1.637
1.652
1.632
1.618
1.623
1.647
1.662
1.652
1.676
1.711
1.72
1.711
1.701
1.711
1.711
1.681
1.662
1.672
1.686
1.691
1.696
1.711
1.725
1.706
1.681
1.681
1.691
1.681
1.667
1.662
1.672
1.667
1.652
1.672
1.701
1.716
1.711
1.706
1.725
1.735
1.711
1.696
1.706
1.701
1.686
1.676
1.686
1.696
1.672
1.647
1.667
1.696
1.706
1.701
1.711
1.73
1.74
1.735
1.755
1.779
1.774
1.755
1.735
1.72
1.711
1.676
1.676
1.711
1.755
1.789
1.828
1.882
1.935
1.94
1.926
1.916
1.891
1.833
1.769
1.73
1.735
1.735
1.711
1.725
1.76
1.784
1.804
1.813
1.833
1.838
1.804
1.784
1.784
1.764
1.73
1.706
1.716
1.745
1.755
1.76
1.789
1.808
1.804
1.784
1.769
1.764
1.735
1.691
1.676
1.686
1.681
1.681
1.696
1.725
1.745
1.725
1.716
1.72
1.706
1.676
1.647
1.637
1.637
1.618
1.603
1.618
1.637
1.637
1.623
1.608
1.603
1.574
1.53
1.515
1.52
1.525
1.549
1.593
1.652
1.696
1.701
1.706
1.72
1.706
1.662
1.608
1.559
1.515
1.452
1.408
1.427
1.486
1.549
1.608
1.667
1.74
1.774
1.764
1.755
1.74
1.686
1.623
1.584
1.588
1.603
1.588
1.598
1.613
1.588
1.53
1.486
1.481
1.496
1.486
1.486
1.525
1.559
1.569
1.554
1.54
1.535
1.515
1.481
1.486
1.51
1.515
1.51
1.51
1.525
1.52
1.486
1.476
1.5
1.515
1.51
1.5
1.505
1.52
1.496
1.461
1.466
1.505
1.549
1.593
1.632
1.667
1.667
1.642
1.642
1.652
1.637
1.613
1.608
1.642
1.662
1.632
1.603
1.588
1.549
1.5
1.471
1.481
1.51
1.515
1.525
1.564
1.593
1.588
1.559
1.544
1.544
1.53
1.505
1.53
1.564
1.579
1.588
1.608
1.632
1.642
1.628
1.637
1.662
1.672
1.657
1.632
1.628
1.632
1.618
1.618
1.647
1.672
1.672
1.667
1.672
1.681
1.657
1.603
1.579
1.584
1.593
1.618
1.662
1.735
1.804
1.813
1.789
1.74
1.676
1.628
1.584
1.559
1.544
1.52
1.535
1.613
1.691
1.725
1.72
1.706
1.711
1.701
1.681
1.701
1.73
1.735
1.725
1.716
1.716
1.696
1.652
1.637
1.657
1.672
1.676
1.676
1.681
1.657
1.598
1.559
1.574
1.603
1.632
1.676
1.745
1.828
1.872
1.862
1.838
1.789
1.691
1.574
1.486
1.457
1.457
1.461
1.515
1.603
1.672
1.706
1.725
1.745
1.755
1.711
1.647
1.623
1.608
1.598
1.598
1.618
1.662
1.672
1.657
1.652
1.672
1.681
1.681
1.676
1.672
1.662
1.637
1.652
1.711
1.764
1.813
1.872
1.95
2.023
2.048
2.067
2.107
2.087
2.004
1.887
1.769
1.681
1.588
1.491
1.447
1.432
1.417
1.403
1.427
1.505
1.593
1.632
1.647
1.642
1.608
1.549
1.486
1.447
1.432
1.403
1.398
1.447
1.52
1.588
1.652
1.711
1.769
1.784
1.774
1.784
1.779
1.745
1.696
1.676
1.681
1.686
1.667
1.681
1.73
1.764
1.769
1.76
1.74
1.725
1.676
1.637
1.642
1.657
1.672
1.681
1.711
1.745
1.745
1.716
1.711
1.711
1.696
1.676
1.676
1.701
1.706
1.676
1.681
1.72
1.745
1.745
1.735
1.735
1.745
1.725
1.711
1.73
1.745
1.745
1.755
1.779
1.818
1.823
1.779
1.75
1.73
1.701
1.667
1.657
1.681
1.716
1.74
1.799
1.882
1.94
1.965
1.97
1.97
1.95
1.887
1.823
1.784
1.755
1.725
1.706
1.725
1.779
1.813
1.833
1.872
1.901
1.901
1.877
1.862
1.882
1.906
1.916
1.945
1.979
1.984
1.95
1.921
1.911
1.901
1.857
1.804
1.779
1.789
1.818
1.848
1.877
1.916
1.935
1.935
1.965
1.989
1.979
1.945
1.901
1.872
1.833
1.769
1.745
1.755
1.76
1.764
1.779
1.813
1.838
1.813
1.784
1.769
1.745
1.706
1.657
1.628
1.613
1.579
1.535
1.54
1.574
1.593
1.603
1.618
1.642
1.657
1.642
1.647
1.667
1.662
1.642
1.613
1.598
1.588
1.564
1.549
1.574
1.593
1.593
1.598
1.618
1.662
1.676
1.676
1.701
1.716
1.696
1.667
1.642
1.632
1.618
1.574
1.559
1.574
1.579
1.584
1.579
1.579
1.574
1.54
1.51
1.53
1.554
1.579
1.598
1.623
1.676
1.706
1.716
1.74
1.74
1.701
1.647
1.613
1.608
1.584
1.53
1.51
1.54
1.564
1.564
1.564
1.593
1.637
1.642
1.647
1.667
1.686
1.672
1.632
1.598
1.588
1.554
1.515
1.525
1.564
1.603
1.642
1.686
1.74
1.769
1.75
1.74
1.745
1.73
1.701
1.667
1.657
1.652
1.613
1.579
1.588
1.603
1.608
1.608
1.628
1.672
1.686
1.676
1.691
1.706
1.691
1.672
1.667
1.686
1.696
1.676
1.672
1.681
1.676
1.672
1.676
1.706
1.735
1.73
1.725
1.745
1.755
1.725
1.686
1.652
1.637
1.613
1.588
1.613
1.662
1.686
1.706
1.725
1.755
1.75
1.701
1.676
1.681
1.676
1.667
1.667
1.691
1.711
1.681
1.647
1.652
1.657
1.642
1.628
1.642
1.686
1.72
1.735
1.779
1.813
1.813
1.789
1.76
1.75
1.735
1.696
1.686
1.701
1.701
1.686
1.672
1.681
1.691
1.672
1.657
1.681
1.696
1.691
1.681
1.691
1.701
1.681
1.652
1.657
1.667
1.657
1.637
1.632
1.652
1.672
1.676
1.696
1.72
1.72
1.716
1.72
1.75
1.784
1.789
1.804
1.867
1.921
1.95
1.96
1.965
1.96
1.906
1.808
1.72
1.632
1.549
1.481
1.447
1.437
1.422
1.393
1.393
1.422
1.437
1.437
1.437
1.457
1.476
1.476
1.486
1.525
1.549
1.544
1.53
1.535
1.574
1.598
1.603
1.628
1.647
1.652
1.652
1.657
1.667
1.652
1.613
1.598
1.608
1.618
1.623
1.632
1.667
1.706
1.701
1.706
1.725
1.74
1.725
1.701
1.681
1.681
1.672
1.657
1.681
1.716
1.735
1.735
1.716
1.706
1.691
1.637
1.618
1.642
1.667
1.681
1.706
1.75
1.789
1.789
1.784
1.799
1.804
1.789
1.774
1.774
1.789
1.774
1.74
1.745
1.75
1.725
1.691
1.672
1.686
1.701
1.686
1.691
1.73
1.76
1.764
1.769
1.789
1.804
1.789
1.784
1.813
1.843
1.852
1.857
1.872
1.901
1.901
1.877
1.872
1.872
1.857
1.838
1.833
1.857
1.867
1.852
1.867
1.901
1.906
1.887
1.867
1.867
1.872
1.838
1.808
1.808
1.818
1.818
1.804
1.818
1.867
1.896
1.916
1.945
1.965
1.955
1.921
1.887
1.862
1.818
1.755
1.725
1.725
1.72
1.72
1.73
1.75
1.764
1.735
1.716
1.725
1.745
1.745
1.74
1.745
1.76
1.745
1.72
1.72
1.725
1.701
1.652
1.613
1.613
1.632
1.637
1.667
1.706
1.73
1.75
1.779
1.804
1.804
1.73
1.647
1.613
1.618
1.632
1.652
1.691
1.74
1.769
1.784
1.799
1.808
1.774
1.73
1.691
1.676
1.652
1.618
1.632
1.672
1.681
1.672
1.657
1.672
1.696
1.696
1.691
1.711
1.716
1.696
1.662
1.637
1.642
1.642
1.642
1.676
1.716
1.73
1.735
1.735
1.745
1.725
1.672
1.647
1.652
1.657
1.657
1.667
1.696
1.706
1.657
1.608
1.618
1.642
1.652
1.652
1.681
1.745
1.789
1.804
1.823
1.818
1.779
1.735
1.706
1.696
1.672
1.628
1.623
1.642
1.652
1.662
1.681
1.716
1.745
1.74
1.745
1.769
1.779
1.76
1.73
1.706
1.696
1.672
1.647
1.657
1.672
1.672
1.667
1.672
1.696
1.696
1.672
1.681
1.711
1.725
1.73
1.73
1.745
1.76
1.735
1.725
1.735
1.73
1.706
1.676
1.662
1.672
1.657
1.652
1.681
1.725
1.745
1.764
1.789
1.823
1.813
1.764
1.74
1.74
1.725
1.716
1.711
1.725
1.735
1.716
1.706
1.716
1.72
1.716
1.711
1.725
1.755
1.76
1.75
1.764
1.769
1.735
1.686
1.652
1.647
1.647
1.623
1.632
1.662
1.672
1.667
1.657
1.652
1.652
1.618
1.608
1.628
1.647
1.662
1.686
1.735
1.784
1.794
1.784
1.774
1.75
1.706
1.657
1.623
1.603
1.574
1.525
1.505
1.525
1.544
1.559
1.579
1.613
1.647
1.657
1.686
1.74
1.774
1.789
1.794
1.813
1.843
1.848
1.843
1.877
1.916
1.926
1.916
1.906
1.906
1.877
1.813
1.76
1.716
1.642
1.574
1.525
1.5
1.486
1.447
1.432
1.452
1.476
1.486
1.486
1.486
1.491
1.481
1.471
1.496
1.53
1.554
1.574
1.603
1.647
1.667
1.657
1.681
1.716
1.725
1.711
1.701
1.711
1.716
1.686
1.667
1.667
1.647
1.603
1.569
1.579
1.603
1.603
1.603
1.642
1.691
1.716
1.735
1.75
1.784
1.794
1.769
1.76
1.755
1.725
1.686
1.667
1.672
1.681
1.657
1.657
1.701
1.74
1.755
1.76
1.764
1.764
1.725
1.681
1.667
1.676
1.681
1.701
1.735
1.789
1.813
1.804
1.808
1.823
1.808
1.764
1.725
1.711
1.711
1.691
1.696
1.735
1.76
1.75
1.73
1.745
1.774
1.779
1.769
1.794
1.828
1.843
1.843
1.852
1.867
1.857
1.823
1.813
1.828
1.833
1.833
1.843
1.867
1.882
1.857
1.852
1.872
1.882
1.867
1.848
1.843
1.848
1.838
1.818
1.833
1.857
1.857
1.852
1.857
1.862
1.852
1.808
1.784
1.784
1.779
1.779
1.789
1.813
1.823
1.799
1.774
1.779
1.774
1.745
1.72
1.725
1.75
1.755
1.745
1.755
1.769
1.745
1.701
1.657
1.637
1.618
1.593
1.613
1.662
1.696
1.711
1.72
1.735
1.74
1.701
1.672
1.667
1.647
1.618
1.593
1.593
1.608
1.588
1.559
1.559
1.574
1.584
1.593
1.618
1.652
1.672
1.657
1.672
1.691
1.686
1.662
1.642
1.647
1.652
1.632
1.623
1.642
1.647
1.637
1.618
1.623
1.632
1.623
1.603
1.623
1.637
1.632
1.628
1.637
1.662
1.662
1.637
1.632
1.652
1.647
1.623
1.598
1.593
1.603
1.584
1.579
1.598
1.618
1.628
1.637
1.667
1.701
1.701
1.686
1.696
1.711
1.706
1.686
1.676
1.676
1.667
1.637
1.637
1.652
1.652
1.642
1.632
1.642
1.657
1.628
1.618
1.637
1.652
1.657
1.652
1.667
1.686
1.676
1.657
1.667
1.667
1.637
1.598
1.584
1.588
1.579
1.559
1.574
1.613
1.628
1.637
1.642
1.662
1.667
1.637
1.623
1.642
1.662
1.667
1.662
1.676
1.711
1.706
1.691
1.701
1.711
1.701
1.681
1.672
1.686
1.686
1.662
1.667
1.686
1.681
1.662
1.652
1.672
1.686
1.662
1.657
1.676
1.686
1.686
1.681
1.691
1.706
1.691
1.672
1.681
1.696
1.686
1.672
1.672
1.686
1.686
1.662
1.657
1.667
1.662
1.647
1.642
1.652
1.657
1.628
1.618
1.642
1.647
1.632
1.613
1.608
1.623
1.608
1.584
1.593
1.608
1.598
1.584
1.588
1.618
1.628
1.608
1.613
1.632
1.632
1.618
1.598
1.598
1.608
1.588
1.593
1.628
1.657
1.667
1.667
1.681
1.701
1.676
1.642
1.623
1.613
1.593
1.579
1.588
1.628
1.662
1.676
1.725
1.789
1.828
1.852
1.872
1.901
1.916
1.887
1.867
1.862
1.843
1.789
1.72
1.662
1.618
1.544
1.466
1.427
1.403
1.378
1.364
1.378
1.413
1.432
1.427
1.447
1.476
1.496
1.51
1.53
1.564
1.598
1.598
1.613
1.652
1.667
1.667
1.652
1.657
1.676
1.667
1.657
1.676
1.706
1.711
1.706
1.706
1.725
1.73
1.701
1.696
1.706
1.701
1.686
1.672
1.681
1.676
1.647
1.642
1.672
1.696
1.696
1.686
1.696
1.716
1.701
1.681
1.691
1.711
1.716
1.701
1.691
1.696
1.691
1.667
1.662
1.681
1.686
1.681
1.691
1.72
1.745
1.73
1.725
1.74
1.745
1.73
1.716
1.725
1.74
1.72
1.691
1.701
1.72
1.725
1.73
1.735
1.76
1.76
1.74
1.745
1.76
1.76
1.74
1.73
1.745
1.76
1.735
1.725
1.745
1.764
1.764
1.76
1.774
1.784
1.764
1.745
1.764
1.789
1.784
1.779
1.789
1.828
1.838
1.823
1.833
1.857
1.852
1.823
1.799
1.808
1.828
1.813
1.813
1.833
1.843
1.833
1.813
1.808
1.808
1.774
1.745
1.74
1.755
1.74
1.725
1.716
1.72
1.696
1.657
1.647
1.662
1.662
1.652
1.642
1.657
1.672
1.652
1.642
1.647
1.637
1.618
1.613
1.632
1.662
1.652
1.647
1.667
1.681
1.672
1.652
1.637
1.642
1.632
1.598
1.598
1.623
1.632
1.632
1.628
1.637
1.632
1.593
1.579
1.593
1.603
1.593
1.588
1.598
1.618
1.608
1.588
1.593
1.593
1.564
1.535
1.53
1.559
1.584
1.598
1.637
1.686
1.711
1.711
1.706
1.706
1.696
1.642
1.613
1.613
1.608
1.598
1.588
1.593
1.603
1.574
1.549
1.569
1.603
1.618
1.628
1.647
1.676
1.681
1.657
1.642
1.637
1.613
1.584
1.579
1.603
1.637
1.632
1.632
1.642
1.637
1.623
1.603
1.608
1.618
1.593
1.574
1.584
1.603
1.618
1.623
1.637
1.672
1.681
1.676
1.696
1.725
1.725
1.706
1.691
1.686
1.686
1.652
1.637
1.652
1.652
1.642
1.623
1.623
1.632
1.608
1.584
1.603
1.632
1.647
1.662
1.691
1.725
1.735
1.716
1.725
1.745
1.735
1.701
1.667
1.662
1.662
1.647
1.657
1.696
1.72
1.72
1.716
1.725
1.74
1.725
1.706
1.706
1.706
1.676
1.637
1.613
1.618
1.603
1.564
1.559
1.579
1.593
1.603
1.608
1.632
1.657
1.647
1.647
1.667
1.672
1.652
1.632
1.637
1.652
1.642
1.632
1.662
1.691
1.696
1.696
1.701
1.706
1.676
1.618
1.593
1.588
1.579
1.579
1.598
1.632
1.667
1.657
1.657
1.667
1.652
1.628
1.618
1.642
1.686
1.706
1.735
1.799
1.867
1.906
1.921
1.931
1.94
1.921
1.877
1.852
1.823
1.75
1.657
1.588
1.544
1.491
1.403
1.354
1.344
1.344
1.344
1.364
1.408
1.476
1.52
1.554
1.608
1.657
1.662
1.647
1.632
1.618
1.579
1.525
1.51
1.53
1.569
1.613
1.662
1.72
1.75
1.735
1.73
1.735
1.72
1.686
1.657
1.637
1.632
1.613
1.598
1.623
1.642
1.632
1.618
1.628
1.657
1.672
1.667
1.686
1.701
1.691
1.672
1.657
1.667
1.662
1.632
1.623
1.647
1.662
1.662
1.652
1.657
1.662
1.632
1.618
1.642
1.676
1.696
1.72
1.75
1.789
1.794
1.774
1.774
1.784
1.76
1.725
1.701
1.701
1.696
1.681
1.711
1.779
1.823
1.838
1.838
1.848
1.852
1.808
1.764
1.73
1.691
1.632
1.593
1.593
1.637
1.681
1.706
1.75
1.808
1.843
1.857
1.862
1.867
1.848
1.784
1.73
1.711
1.696
1.681
1.686
1.716
1.76
1.789
1.828
1.887
1.931
1.935
1.926
1.921
1.921
1.891
1.843
1.823
1.818
1.799
1.774
1.764
1.774
1.779
1.75
1.74
1.75
1.745
1.725
1.711
1.716
1.716
1.681
1.652
1.652
1.652
1.642
1.632
1.637
1.662
1.652
1.628
1.623
1.632
1.628
1.628
1.637
1.652
1.647
1.608
1.584
1.598
1.603
1.593
1.574
1.574
1.584
1.579
1.579
1.603
1.623
1.618
1.593
1.584
1.598
1.593
1.579
1.593
1.613
1.613
1.598
1.598
1.623
1.642
1.623
1.623
1.642
1.657
1.652
1.637
1.637
1.642
1.623
1.603
1.618
1.642
1.637
1.623
1.613
1.618
1.593
1.535
1.515
1.525
1.52
1.491
1.471
1.5
1.535
1.54
1.559
1.598
1.632
1.652
1.657
1.662
1.657
1.608
1.559
1.54
1.53
1.525
1.535
1.574
1.637
1.676
1.676
1.696
1.72
1.716
1.696
1.681
1.681
1.672
1.623
1.608
1.628
1.642
1.637
1.637
1.647
1.672
1.672
1.657
1.672
1.672
1.647
1.623
1.628
1.657
1.667
1.657
1.676
1.701
1.691
1.672
1.657
1.676
1.711
1.716
1.725
1.75
1.755
1.745
1.735
1.75
1.784
1.789
1.799
1.833
1.882
1.906
1.911
1.901
1.887
1.833
1.769
1.755
1.784
1.804
1.818
1.828
1.857
1.872
1.852
1.828
1.813
1.779
1.74
1.706
1.696
1.706
1.691
1.676
1.691
1.696
1.681
1.652
1.632
1.628
1.608
1.584
1.593
1.608
1.598
1.584
1.593
1.623
1.642
1.628
1.632
1.652
1.662
1.642
1.623
1.623
1.628
1.593
1.559
1.549
1.544
1.525
1.515
1.53
1.569
1.593
1.588
1.618
1.657
1.681
1.681
1.676
1.681
1.686
1.662
1.667
1.696
1.716
1.72
1.725
1.745
1.774
1.76
1.755
1.779
1.799
1.784
1.755
1.725
1.701
1.637
1.554
1.496
1.457
1.417
1.398
1.408
1.437
1.457
1.457
1.486
1.525
1.544
1.525
1.5
1.491
1.496
1.476
1.471
1.505
1.535
1.549
1.564
1.598
1.642
1.652
1.632
1.632
1.637
1.628
1.608
1.603
1.628
1.642
1.628
1.628
1.647
1.647
1.632
1.608
1.608
1.623
1.618
1.618
1.647
1.667
1.662
1.657
1.657
1.657
1.637
1.603
1.608
1.637
1.657
1.662
1.672
1.696
1.706
1.667
1.652
1.667
1.676
1.672
1.667
1.672
1.686
1.672
1.652
1.657
1.667
1.657
1.652
1.662
1.691
1.696
1.691
1.706
1.73
1.725
1.716
1.701
1.711
1.716
1.696
1.691
1.711
1.72
1.706
1.691
1.696
1.716
1.701
1.696
1.73
1.76
1.769
1.769
1.774
1.794
1.774
1.735
1.73
1.75
1.769
1.779
1.789
1.799
1.799
1.764
1.75
1.75
1.735
1.706
1.681
1.691
1.706
1.691
1.672
1.681
1.681
1.672
1.672
1.711
1.769
1.799
1.799
1.804
1.813
1.799
1.774
1.755
1.755
1.75
1.72
1.711
1.725
1.72
1.701
1.672
1.662
1.667
1.647
1.642
1.672
1.706
1.706
1.691
1.686
1.686
1.667
1.632
1.637
1.657
1.657
1.642
1.628
1.632
1.637
1.623
1.623
1.632
1.628
1.608
1.593
1.593
1.608
1.593
1.584
1.613
1.642
1.657
1.667
1.686
1.72
1.725
1.701
1.701
1.701
1.681
1.647
1.632
1.642
1.647
1.618
1.608
1.628
1.637
1.628
1.613
1.618
1.623
1.598
1.579
1.593
1.613
1.608
1.593
1.579
1.584
1.564
1.53
1.515
1.515
1.5
1.496
1.515
1.574
1.623
1.632
1.642
1.662
1.672
1.667
1.642
1.632
1.637
1.623
1.618
1.657
1.706
1.72
1.716
1.701
1.696
1.657
1.603
1.584
1.584
1.574
1.564
1.564
1.588
1.598
1.574
1.564
1.574
1.569
1.559
1.549
1.564
1.584
1.579
1.569
1.584
1.588
1.569
1.549
1.544
1.554
1.544
1.535
1.559
1.593
1.598
1.603
1.608
1.632
1.637
1.603
1.579
1.579
1.574
1.564
1.559
1.579
1.593
1.564
1.549
1.569
1.593
1.608
1.618
1.647
1.691
1.716
1.711
1.735
1.764
1.76
1.73
1.701
1.706
1.716
1.696
1.686
1.696
1.696
1.691
1.676
1.681
1.681
1.637
1.603
1.608
1.623
1.632
1.642
1.662
1.706
1.716
1.716
1.73
1.75
1.745
1.73
1.72
1.72
1.711
1.676
1.676
1.691
1.686
1.657
1.632
1.632
1.642
1.623
1.608
1.628
1.647
1.647
1.637
1.637
1.647
1.632
1.598
1.593
1.603
1.603
1.603
1.628
1.672
1.711
1.716
1.74
1.769
1.779
1.764
1.745
1.73
1.72
1.691
1.696
1.735
1.789
1.828
1.872
1.921
1.965
1.965
1.916
1.882
1.843
1.779
1.701
1.632
1.588
1.559
1.515
1.496
1.5
1.491
1.471
1.452
1.461
1.481
1.476
1.471
1.5
1.52
1.52
1.515
1.54
1.588
1.618
1.628
1.657
1.691
1.696
1.676
1.657
1.657
1.662
1.647
1.657
1.691
1.716
1.725
1.735
1.745
1.75
1.711
1.676
1.676
1.691
1.696
1.711
1.73
1.755
1.74
1.716
1.716
1.72
1.711
1.691
1.686
1.706
1.72
1.706
1.711
1.73
1.74
1.74
1.735
1.745
1.75
1.711
1.672
1.676
1.691
1.691
1.686
1.676
1.676
1.662
1.652
1.681
1.72
1.74
1.745
1.76
1.799
1.823
1.804
1.789
1.789
1.774
1.745
1.725
1.735
1.755
1.75
1.755
1.779
1.794
1.789
1.769
1.774
1.789
1.784
1.764
1.774
1.794
1.794
1.789
1.789
1.808
1.818
1.799
1.799
1.823
1.828
1.813
1.789
1.784
1.789
1.774
1.774
1.799
1.823
1.828
1.813
1.799
1.794
1.76
1.72
1.725
1.76
1.789
1.818
1.852
1.901
1.926
1.896
1.877
1.862
1.833
1.794
1.76
1.75
1.755
1.73
1.711
1.716
1.716
1.706
1.696
1.711
1.75
1.76
1.755
1.764
1.784
1.76
1.716
1.672
1.662
1.642
1.613
1.608
1.637
1.662
1.667
1.667
1.667
1.662
1.623
1.608
1.628
1.657
1.667
1.676
1.706
1.74
1.745
1.72
1.711
1.701
1.667
1.628
1.608
1.618
1.637
1.632
1.647
1.681
1.706
1.711
1.711
1.72
1.72
1.686
1.662
1.672
1.691
1.686
1.681
1.676
1.681
1.652
1.603
1.574
1.564
1.549
1.544
1.579
1.647
1.701
1.725
1.755
1.789
1.789
1.764
1.73
1.711
1.691
1.652
1.628
1.647
1.672
1.676
1.676
1.686
1.716
1.711
1.676
1.652
1.628
1.579
1.535
1.52
1.549
1.593
1.632
1.696
1.76
1.789
1.76
1.711
1.672
1.647
1.608
1.603
1.642
1.706
1.755
1.799
1.838
1.857
1.808
1.725
1.652
1.603
1.564
1.544
1.549
1.574
1.603
1.623
1.686
1.779
1.848
1.882
1.887
1.877
1.862
1.799
1.745
1.72
1.701
1.672
1.662
1.681
1.72
1.725
1.706
1.701
1.696
1.672
1.632
1.613
1.637
1.676
1.686
1.711
1.76
1.789
1.804
1.808
1.833
1.843
1.813
1.774
1.745
1.706
1.652
1.613
1.608
1.637
1.662
1.686
1.745
1.818
1.857
1.867
1.857
1.848
1.808
1.725
1.662
1.642
1.632
1.623
1.623
1.647
1.686
1.691
1.701
1.74
1.764
1.755
1.74
1.72
1.701
1.642
1.584
1.579
1.603
1.623
1.628
1.642
1.657
1.632
1.584
1.574
1.579
1.564
1.52
1.471
1.466
1.491
1.486
1.481
1.525
1.574
1.613
1.662
1.74
1.823
1.872
1.891
1.921
1.945
1.931
1.911
1.911
1.935
1.94
1.921
1.906
1.901
1.862
1.794
1.72
1.662
1.623
1.559
1.5
1.466
1.437
1.393
1.354
1.359
1.388
1.373
1.329
1.325
1.334
1.315
1.276
1.256
1.295
1.369
1.457
1.579
1.701
1.804
1.877
1.921
1.94
1.916
1.823
1.72
1.657
1.618
1.588
1.588
1.618
1.672
1.701
1.706
1.73
1.76
1.755
1.735
1.716
1.711
1.691
1.652
1.657
1.691
1.711
1.706
1.686
1.672
1.667
1.632
1.608
1.593
1.554
1.51
1.5
1.544
1.623
1.662
1.652
1.667
1.72
1.774
1.794
1.784
1.76
1.716
1.662
1.657
1.706
1.755
1.784
1.794
1.813
1.828
1.789
1.745
1.735
1.725
1.696
1.667
1.662
1.696
1.725
1.74
1.76
1.745
1.686
1.652
1.642
1.662
1.657
1.608
1.588
1.628
1.681
1.725
1.755
1.794
1.828
1.833
1.852
1.906
1.931
1.911
1.862
1.828
1.823
1.804
1.779
1.789
1.799
1.799
1.784
1.779
1.779
1.74
1.667
1.637
1.632
1.618
1.593
1.598
1.652
1.735
1.784
1.838
1.891
1.921
1.891
1.828
1.76
1.701
1.642
1.584
1.569
1.588
1.608
1.637
1.676
1.73
1.74
1.716
1.716
1.725
1.716
1.691
1.672
1.686
1.711
1.706
1.701
1.701
1.701
1.667
1.628
1.588
1.554
1.505
1.481
1.52
1.588
1.642
1.686
1.73
1.789
1.818
1.799
1.779
1.76
1.72
1.676
1.657
1.672
1.696
1.672
1.637
1.623
1.618
1.613
1.613
1.623
1.647
1.647
1.652
1.691
1.725
1.711
1.667
1.637
1.628
1.603
1.549
1.525
1.54
1.544
1.53
1.505
1.515
1.554
1.579
1.613
1.676
1.725
1.735
1.735
1.74
1.74
1.701
1.642
1.593
1.559
1.525
1.515
1.53
1.569
1.593
1.603
1.628
1.667
1.686
1.686
1.691
1.711
1.73
1.716
1.696
1.701
1.706
1.686
1.657
1.637
1.628
1.598
1.569
1.579
1.608
1.632
1.647
1.676
1.716
1.73
1.706
1.691
1.686
1.657
1.623
1.598
1.608
1.623
1.608
1.598
1.628
1.662
1.681
1.701
1.72
1.75
1.75
1.735
1.76
1.789
1.794
1.769
1.75
1.745
1.716
1.657
1.628
1.642
1.667
1.691
1.716
1.745
1.769
1.769
1.784
1.804
1.794
1.755
1.716
1.691
1.691
1.662
1.623
1.603
1.603
1.588
1.569
1.564
1.588
1.608
1.608
1.637
1.686
1.701
1.676
1.637
1.628
1.632
1.618
1.603
1.623
1.637
1.632
1.618
1.613
1.618
1.603
1.579
1.588
1.613
1.632
1.667
1.716
1.774
1.794
1.774
1.764
1.774
1.755
1.716
1.686
1.681
1.701
1.701
1.716
1.745
1.764
1.764
1.76
1.76
1.76
1.74
1.725
1.755
1.799
1.828
1.838
1.852
1.867
1.857
1.799
1.755
1.72
1.662
1.598
1.549
1.525
1.51
1.471
1.447
1.442
1.447
1.452
1.481
1.54
1.603
1.628
1.637
1.662
1.686
1.672
1.637
1.608
1.593
1.588
1.584
1.628
1.701
1.735
1.745
1.75
1.76
1.76
1.72
1.691
1.691
1.691
1.691
1.696
1.72
1.764
1.769
1.755
1.769
1.794
1.799
1.789
1.784
1.794
1.784
1.745
1.72
1.72
1.706
1.681
1.662
1.662
1.672
1.662
1.681
1.725
1.76
1.764
1.755
1.745
1.74
1.711
1.667
1.662
1.667
1.662
1.662
1.676
1.706
1.706
1.676
1.676
1.696
1.706
1.701
1.711
1.745
1.784
1.784
1.779
1.799
1.799
1.784
1.774
1.789
1.818
1.808
1.769
1.755
1.755
1.735
1.711
1.696
1.716
1.73
1.74
1.774
1.828
1.848
1.843
1.833
1.838
1.823
1.774
1.745
1.755
1.764
1.76
1.76
1.779
1.813
1.823
1.818
1.833
1.848
1.838
1.818
1.804
1.808
1.804
1.774
1.769
1.784
1.794
1.789
1.784
1.799
1.808
1.789
1.779
1.794
1.794
1.76
1.711
1.657
1.613
1.564
1.535
1.564
1.613
1.642
1.672
1.716
1.764
1.789
1.76
1.745
1.74
1.716
1.676
1.642
1.632
1.647
1.642
1.642
1.667
1.676
1.681
1.691
1.711
1.725
1.701
1.672
1.662
1.642
1.603
1.579
1.598
1.632
1.618
1.535
1.491
1.5
1.51
1.51
1.52
1.559
1.613
1.647
1.696
1.75
1.764
1.74
1.701
1.672
1.657
1.623
1.593
1.593
1.598
1.569
1.535
1.515
1.53
1.549
1.564
1.618
1.701
1.764
1.818
1.857
1.901
1.926
1.896
1.862
1.862
1.862
1.872
1.891
1.945
2.004
2.023
2.014
2.014
2.009
1.965
1.911
1.857
1.828
1.794
1.75
1.74
1.764
1.774
1.774
1.769
1.774
1.774
1.735
1.706
1.711
1.716
1.706
1.696
1.706
1.72
1.676
1.608
1.584
1.584
1.564
1.535
1.505
1.5
1.505
1.496
1.52
1.559
1.579
1.579
1.564
1.554
1.544
1.5
1.471
1.476
1.486
1.491
1.491
1.5
1.515
1.496
1.461
1.461
1.461
1.442
1.417
1.417
1.452
1.476
1.486
1.505
1.535
1.535
1.51
1.5
1.525
1.564
1.579
1.593
1.618
1.628
1.618
1.608
1.608
1.628
1.613
1.588
1.584
1.588
1.579
1.559
1.535
1.53
1.52
1.496
1.496
1.535
1.569
1.598
1.637
1.686
1.725
1.72
1.725
1.75
1.764
1.755
1.745
1.75
1.769
1.755
1.725
1.725
1.735
1.72
1.691
1.672
1.676
1.676
1.657
1.672
1.696
1.711
1.711
1.725
1.76
1.789
1.784
1.799
1.838
1.872
1.887
1.887
1.891
1.891
1.852
1.808
1.784
1.764
1.711
1.652
1.608
1.598
1.579
1.54
1.52
1.525
1.535
1.535
1.54
1.574
1.608
1.613
1.632
1.686
1.73
1.735
1.73
1.74
1.76
1.755
1.745
1.769
1.784
1.774
1.755
1.75
1.764
1.76
1.735
1.73
1.755
1.76
1.76
1.76
1.774
1.789
1.764
1.75
1.755
1.75
1.735
1.706
1.686
1.686
1.676
1.672
1.711
1.769
1.818
1.862
1.911
1.95
1.955
1.926
1.916
1.916
1.882
1.838
1.808
1.813
1.828
1.804
1.784
1.794
1.794
1.789
1.789
1.804
1.838
1.838
1.823
1.828
1.843
1.843
1.838
1.838
1.852
1.852
1.828
1.828
1.852
1.857
1.852
1.848
1.857
1.867
1.852
1.843
1.862
1.877
1.882
1.877
1.887
1.896
1.891
1.877
1.887
1.906
1.901
1.896
1.896
1.921
1.931
1.921
1.926
1.95
1.955
1.95
1.935
1.94
1.95
1.931
1.926
1.945
1.955
1.95
1.931
1.921
1.921
1.896
1.857
1.857
1.867
1.857
1.838
1.833
1.848
1.848
1.823
1.818
1.828
1.828
1.818
1.813
1.818
1.813
1.779
1.76
1.769
1.774
1.764
1.755
1.76
1.769
1.755
1.725
1.73
1.745
1.745
1.735
1.735
1.755
1.76
1.735
1.73
1.735
1.716
1.681
1.652
1.647
1.657
1.657
1.676
1.72
1.74
1.73
1.716
1.711
1.716
1.686
1.662
1.662
1.672
1.676
1.681
1.706
1.745
1.764
1.74
1.73
1.73
1.711
1.676
1.647
1.637
1.637
1.613
1.613
1.637
1.657
1.662
1.662
1.672
1.691
1.676
1.657
1.657
1.667
1.657
1.637
1.632
1.642
1.642
1.628
1.632
1.652
1.657
1.652
1.642
1.657
1.672
1.652
1.647
1.672
1.686
1.686
1.691
1.706
1.73
1.72
1.711
1.72
1.73
1.711
1.681
1.662
1.662
1.647
1.613
1.603
1.623
1.632
1.628
1.637
1.667
1.681
1.647
1.628
1.642
1.652
1.652
1.647
1.662
1.691
1.686
1.681
1.696
1.716
1.706
1.691
1.681
1.691
1.686
1.667
1.672
1.701
1.72
1.725
1.73
1.745
1.76
1.73
1.711
1.711
1.706
1.701
1.711
1.745
1.784
1.769
1.74
1.735
1.73
1.711
1.676
1.652
1.662
1.672
1.667
1.681
1.706
1.701
1.681
1.662
1.667
1.676
1.657
1.657
1.686
1.701
1.686
1.672
1.672
1.691
1.686
1.676
1.691
1.701
1.691
1.676
1.672
1.696
1.701
1.672
1.672
1.696
1.72
1.745
1.75
1.75
1.74
1.706
1.691
1.691
1.696
1.691
1.696
1.735
1.784
1.789
1.75
1.706
1.647
1.569
1.51
1.486
1.515
1.564
1.623
1.716
1.823
1.916
1.95
1.945
1.916
1.862
1.774
1.725
1.725
1.735
1.73
1.725
1.72
1.706
1.647
1.579
1.54
1.51
1.471
1.442
1.437
1.466
1.486
1.486
1.51
1.549
1.564
1.569
1.574
1.593
1.608
1.584
1.574
1.598
1.623
1.623
1.623
1.642
1.667
1.662
1.642
1.657
1.681
1.681
1.662
1.647
1.657
1.652
1.623
1.618
1.632
1.632
1.628
1.632
1.652
1.681
1.681
1.672
1.667
1.637
1.588
1.54
1.54
1.569
1.579
1.579
1.603
1.632
1.642
1.642
1.647
1.657
1.647
1.618
1.632
1.672
1.686
1.676
1.657
1.637
1.632
1.603
1.598
1.618
1.642
1.662
1.676
1.711
1.74
1.735
1.711
1.72
1.73
1.725
1.72
1.73
1.75
1.75
1.73
1.73
1.75
1.745
1.73
1.73
1.75
1.769
1.755
1.75
1.769
1.784
1.784
1.784
1.799
1.823
1.813
1.808
1.828
1.848
1.848
1.843
1.848
1.862
1.857
1.833
1.828
1.833
1.818
1.794
1.779
1.789
1.804
1.784
1.779
1.804
1.818
1.818
1.813
1.818
1.828
1.804
1.779
1.779
1.789
1.784
1.769
1.76
1.769
1.764
1.735
1.73
1.74
1.74
1.735
1.74
1.76
1.764
1.735
1.716
1.716
1.706
1.681
1.652
1.647
1.652
1.642
1.623
1.632
1.642
1.637
1.632
1.647
1.676
1.681
1.667
1.681
1.706
1.706
1.686
1.667
1.667
1.667
1.637
1.632
1.652
1.662
1.657
1.647
1.652
1.676
1.667
1.657
1.676
1.701
1.696
1.681
1.681
1.696
1.686
1.652
1.652
1.667
1.662
1.652
1.667
1.701
1.72
1.686
1.657
1.662
1.657
1.637
1.618
1.618
1.632
1.632
1.628
1.652
1.681
1.686
1.676
1.667
1.676
1.667
1.632
1.628
1.647
1.652
1.642
1.632
1.647
1.652
1.628
1.618
1.623
1.623
1.613
1.603
1.623
1.662
1.667
1.652
1.662
1.672
1.657
1.628
1.613
1.613
1.598
1.569
1.574
1.598
1.608
1.608
1.613
1.632
1.652
1.642
1.657
1.696
1.716
1.716
1.696
1.681
1.676
1.642
1.603
1.603
1.628
1.642
1.657
1.676
1.696
1.691
1.657
1.647
1.662
1.667
1.662
1.657
1.676
1.706
1.711
1.73
1.76
1.769
1.745
1.725
1.716
1.725
1.711
1.691
1.696
1.706
1.696
1.676
1.672
1.681
1.676
1.642
1.637
1.652
1.657
1.652
1.647
1.657
1.667
1.642
1.632
1.642
1.657
1.652
1.647
1.657
1.676
1.667
1.652
1.667
1.676
1.662
1.642
1.632
1.647
1.647
1.623
1.637
1.667
1.676
1.667
1.657
1.672
1.681
1.652
1.642
1.662
1.672
1.662
1.652
1.662
1.691
1.686
1.676
1.711
1.76
1.789
1.813
1.857
1.911
1.945
1.955
1.975
2.014
2.023
1.979
1.906
1.838
1.764
1.662
1.579
1.54
1.505
1.471
1.447
1.447
1.466
1.452
1.432
1.442
1.461
1.466
1.481
1.52
1.579
1.623
1.628
1.657
1.686
1.691
1.681
1.676
1.701
1.72
1.701
1.691
1.711
1.72
1.711
1.706
1.72
1.745
1.745
1.725
1.735
1.745
1.74
1.725
1.72
1.735
1.735
1.711
1.72
1.75
1.764
1.764
1.769
1.784
1.794
1.764
1.74
1.745
1.745
1.73
1.716
1.72
1.74
1.74
1.735
1.76
1.789
1.789
1.774
1.769
1.779
1.769
1.74
1.74
1.76
1.76
1.755
1.755
1.774
1.794
1.779
1.779
1.804
1.818
1.808
1.799
1.799
1.813
1.794
1.764
1.769
1.784
1.784
1.779
1.784
1.813
1.818
1.799
1.813
1.838
1.843
1.838
1.833
1.852
1.867
1.843
1.833
1.843
1.848
1.833
1.813
1.818
1.833
1.823
1.808
1.823
1.848
1.852
1.848
1.848
1.867
1.867
1.838
1.838
1.852
1.852
1.838
1.828
1.838
1.848
1.818
1.794
1.789
1.779
1.75
1.725
1.716
1.72
1.696
1.667
1.676
1.686
1.676
1.657
1.642
1.647
1.642
1.623
1.623
1.642
1.647
1.637
1.632
1.642
1.652
1.623
1.623
1.652
1.667
1.657
1.642
1.642
1.647
1.623
1.603
1.618
1.623
1.608
1.584
1.574
1.588
1.579
1.544
1.54
1.554
1.559
1.559
1.569
1.598
1.618
1.603
1.593
1.608
1.618
1.608
1.593
1.593
1.613
1.598
1.579
1.588
1.608
1.603
1.598
1.603
1.618
1.618
1.593
1.593
1.613
1.618
1.613
1.613
1.632
1.647
1.628
1.613
1.623
1.623
1.608
1.593
1.603
1.628
1.623
1.608
1.628
1.642
1.632
1.608
1.593
1.603
1.598
1.579
1.584
1.613
1.618
1.613
1.603
1.613
1.623
1.598
1.588
1.603
1.618
1.618
1.618
1.632
1.647
1.632
1.598
1.598
1.608
1.598
1.584
1.584
1.608
1.613
1.598
1.603
1.628
1.628
1.618
1.608
1.618
1.628
1.608
1.593
1.618
1.632
1.632
1.623
1.623
1.628
1.613
1.588
1.603
1.623
1.623
1.618
1.632
1.662
1.667
1.642
1.642
1.647
1.632
1.603
1.584
1.588
1.603
1.584
1.579
1.598
1.608
1.598
1.584
1.584
1.584
1.559
1.535
1.54
1.549
1.54
1.53
1.54
1.564
1.569
1.54
1.535
1.554
1.554
1.544
1.54
1.554
1.569
1.549
1.544
1.569
1.579
1.574
1.569
1.579
1.598
1.593
1.574
1.588
1.608
1.608
1.593
1.588
1.603
1.598
1.574
1.584
1.618
1.632
1.637
1.657
1.691
1.72
1.72
1.74
1.789
1.838
1.872
1.891
1.916
1.94
1.931
1.896
1.862
1.818
1.745
1.667
1.618
1.598
1.559
1.491
1.447
1.442
1.422
1.393
1.378
1.393
1.417
1.422
1.442
1.496
1.54
1.564
1.569
1.588
1.618
1.613
1.613
1.647
1.691
1.701
1.701
1.696
1.706
1.701
1.667
1.662
1.676
1.681
1.676
1.676
1.701
1.725
1.711
1.706
1.73
1.745
1.73
1.716
1.716
1.725
1.711
1.686
1.696
1.711
1.711
1.711
1.72
1.75
1.755
1.725
1.725
1.745
1.745
1.735
1.72
1.735
1.745
1.72
1.716
1.74
1.75
1.74
1.73
1.74
1.76
1.75
1.725
1.735
1.745
1.735
1.72
1.725
1.75
1.76
1.745
1.76
1.789
1.804
1.808
1.808
1.823
1.838
1.813
1.804
1.813
1.818
1.808
1.804
1.818
1.852
1.857
1.843
1.852
1.867
1.862
1.848
1.838
1.852
1.848
1.823
1.833
1.862
1.877
1.877
1.872
1.887
1.896
1.882
1.877
1.896
1.906
1.906
1.901
1.911
1.926
1.906
1.877
1.872
1.877
1.867
1.848
1.843
1.857
1.848
1.813
1.804
1.808
1.799
1.774
1.75
1.755
1.764
1.745
1.735
1.75
1.75
1.73
1.711
1.706
1.716
1.696
1.676
1.681
1.701
1.696
1.691
1.686
1.691
1.672
1.637
1.628
1.642
1.637
1.623
1.618
1.632
1.647
1.623
1.618
1.637
1.657
1.652
1.642
1.652
1.676
1.667
1.647
1.652
1.662
1.652
1.637
1.623
1.628
1.618
1.588
1.593
1.618
1.623
1.613
1.618
1.642
1.657
1.637
1.623
1.632
1.637
1.623
1.603
1.603
1.613
1.588
1.569
1.579
1.598
1.598
1.603
1.608
1.632
1.637
1.613
1.608
1.618
1.613
1.593
1.588
1.613
1.632
1.623
1.623
1.647
1.667
1.657
1.642
1.637
1.642
1.618
1.593
1.603
1.618
1.618
1.608
1.613
1.647
1.662
1.642
1.652
1.676
1.681
1.672
1.667
1.676
1.686
1.672
1.667
1.691
1.701
1.681
1.662
1.672
1.691
1.676
1.657
1.672
1.691
1.696
1.691
1.696
1.716
1.716
1.691
1.691
1.706
1.706
1.691
1.686
1.701
1.716
1.691
1.681
1.696
1.701
1.691
1.681
1.686
1.701
1.676
1.652
1.657
1.672
1.672
1.652
1.647
1.657
1.652
1.623
1.623
1.642
1.637
1.623
1.613
1.623
1.632
1.608
1.598
1.608
1.618
1.618
1.613
1.618
1.632
1.618
1.593
1.603
1.613
1.608
1.603
1.603
1.628
1.637
1.623
1.632
1.662
1.662
1.652
1.637
1.647
1.657
1.642
1.647
1.696
1.74
1.764
1.784
1.818
1.852
1.848
1.818
1.813
1.804
1.755
1.691
1.628
1.584
1.53
1.457
1.422
1.408
1.388
1.373
1.373
1.393
1.417
1.403
1.403
1.427
1.447
1.457
1.466
1.496
1.544
1.559
1.559
1.579
1.603
1.598
1.588
1.584
1.598
1.593
1.574
1.579
1.603
1.618
1.618
1.613
1.628
1.642
1.637
1.632
1.647
1.657
1.642
1.623
1.628
1.642
1.632
1.613
1.628
1.652
1.657
1.657
1.662
1.691
1.696
1.676
1.676
1.701
1.701
1.691
1.686
1.696
1.706
1.681
1.672
1.681
1.686
1.672
1.662
1.667
1.691
1.686
1.676
1.691
1.716
1.725
1.725
1.73
1.745
1.74
1.706
1.706
1.725
1.725
1.716
1.711
1.735
1.764
1.76
1.76
1.779
1.784
1.769
1.75
1.755
1.774
1.76
1.74
1.76
1.789
1.799
1.794
1.789
1.799
1.799
1.774
1.769
1.789
1.799
1.804
1.813
1.833
1.848
1.828
1.813
1.828
1.818
1.789
1.76
1.755
1.769
1.755
1.745
1.764
1.779
1.769
1.755
1.75
1.76
1.74
1.701
1.691
1.711
1.711
1.701
1.696
1.706
1.711
1.686
1.667
1.676
1.681
1.672
1.657
1.662
1.676
1.676
1.672
1.686
1.701
1.681
1.657
1.642
1.642
1.632
1.598
1.598
1.628
1.637
1.637
1.637
1.642
1.642
1.603
1.579
1.588
1.593
1.584
1.579
1.598
1.628
1.628
1.618
1.637
1.667
1.667
1.647
1.637
1.642
1.628
1.588
1.574
1.584
1.584
1.574
1.574
1.603
1.632
1.628
1.623
1.642
1.642
1.628
1.603
1.603
1.623
1.618
1.603
1.623
1.642
1.647
1.642
1.642
1.657
1.652
1.618
1.623
1.642
1.647
1.642
1.637
1.647
1.652
1.628
1.613
1.632
1.642
1.637
1.642
1.657
1.676
1.662
1.637
1.637
1.642
1.632
1.618
1.613
1.637
1.647
1.632
1.647
1.672
1.681
1.676
1.662
1.672
1.681
1.662
1.667
1.691
1.706
1.701
1.696
1.696
1.711
1.691
1.662
1.667
1.681
1.676
1.667
1.667
1.691
1.696
1.676
1.686
1.716
1.725
1.716
1.706
1.711
1.716
1.686
1.667
1.681
1.686
1.676
1.662
1.662
1.672
1.657
1.632
1.637
1.642
1.632
1.628
1.652
1.686
1.701
1.672
1.662
1.672
1.667
1.647
1.632
1.642
1.642
1.618
1.608
1.628
1.642
1.632
1.613
1.618
1.632
1.632
1.628
1.652
1.676
1.676
1.662
1.652
1.657
1.652
1.618
1.618
1.642
1.657
1.672
1.691
1.74
1.789
1.808
1.838
1.891
1.931
1.935
1.931
1.931
1.921
1.862
1.774
1.711
1.657
1.593
1.54
1.505
1.5
1.486
1.461
1.466
1.491
1.486
1.471
1.466
1.491
1.525
1.535
1.564
1.613
1.657
1.667
1.667
1.676
1.691
1.662
1.632
1.637
1.657
1.657
1.657
1.667
1.696
1.696
1.672
1.672
1.696
1.706
1.701
1.691
1.701
1.711
1.691
1.681
1.691
1.696
1.681
1.672
1.681
1.706
1.701
1.686
1.706
1.725
1.72
1.706
1.706
1.725
1.72
1.691
1.686
1.691
1.681
1.662
1.652
1.667
1.686
1.676
1.676
1.711
1.725
1.72
1.711
1.72
1.74
1.725
1.706
1.716
1.735
1.735
1.725
1.72
1.735
1.73
1.701
1.701
1.72
1.72
1.706
1.706
1.735
1.779
1.789
1.799
1.818
1.823
1.799
1.764
1.75
1.745
1.72
1.701
1.72
1.755
1.774
1.784
1.799
1.823
1.818
1.784
1.779
1.794
1.799
1.799
1.799
1.818
1.838
1.818
1.808
1.818
1.828
1.813
1.794
1.789
1.789
1.764
1.735
1.74
1.75
1.75
1.745
1.745
1.764
1.764
1.735
1.735
1.75
1.75
1.73
1.711
1.711
1.706
1.667
1.647
1.652
1.647
1.628
1.608
1.623
1.652
1.657
1.652
1.681
1.711
1.72
1.716
1.706
1.711
1.686
1.642
1.623
1.623
1.613
1.603
1.603
1.632
1.667
1.662
1.662
1.691
1.706
1.696
1.676
1.672
1.676
1.647
1.618
1.623
1.632
1.623
1.608
1.613
1.632
1.642
1.623
1.628
1.657
1.657
1.652
1.647
1.662
1.667
1.642
1.628
1.647
1.657
1.652
1.647
1.657
1.676
1.667
1.652
1.662
1.676
1.667
1.652
1.642
1.657
1.662
1.642
1.647
1.672
1.672
1.657
1.647
1.657
1.667
1.642
1.632
1.652
1.662
1.662
1.657
1.676
1.701
1.691
1.667
1.672
1.681
1.672
1.657
1.652
1.667
1.667
1.637
1.642
1.662
1.672
1.667
1.662
1.676
1.691
1.676
1.676
1.701
1.711
1.701
1.696
1.701
1.716
1.701
1.681
1.696
1.711
1.701
1.691
1.686
1.701
1.701
1.681
1.686
1.711
1.716
1.706
1.696
1.706
1.711
1.681
1.662
1.672
1.676
1.662
1.647
1.647
1.662
1.642
1.613
1.623
1.642
1.647
1.642
1.652
1.672
1.672
1.647
1.647
1.662
1.657
1.647
1.642
1.652
1.667
1.647
1.637
1.657
1.667
1.657
1.647
1.652
1.672
1.657
1.632
1.642
1.652
1.642
1.632
1.632
1.657
1.667
1.662
1.691
1.74
1.774
1.789
1.804
1.843
1.877
1.867
1.867
1.882
1.887
1.857
1.813
1.774
1.745
1.681
1.613
1.584
1.564
1.53
1.496
1.481
1.486
1.481
1.457
1.461
1.491
1.515
1.53
1.544
1.584
1.618
1.618
1.628
1.667
1.686
1.681
1.672
1.681
1.696
1.681
1.657
1.662
1.672
1.662
1.652
1.652
1.681
1.686
1.667
1.667
1.691
1.696
1.696
1.691
1.706
1.72
1.701
1.696
1.716
1.72
1.706
1.686
1.691
1.706
1.696
1.676
1.691
1.711
1.711
1.711
1.716
1.735
1.735
1.706
1.701
1.73
1.74
1.73
1.711
1.716
1.725
1.701
1.691
1.706
1.716
1.706
1.706
1.716
1.74
1.735
1.711
1.72
1.73
1.72
1.701
1.701
1.73
1.745
1.735
1.745
1.774
1.784
1.784
1.784
1.799
1.808
1.779
1.76
1.769
1.774
1.764
1.75
1.755
1.779
1.779
1.769
1.789
1.818
1.823
1.828
1.828
1.848
1.852
1.823
1.818
1.833
1.828
1.808
1.794
1.794
1.799
1.779
1.779
1.804
1.818
1.808
1.789
1.789
1.799
1.779
1.75
1.745
1.75
1.735
1.72
1.72
1.735
1.735
1.701
1.686
1.696
1.696
1.676
1.662
1.667
1.672
1.642
1.628
1.647
1.657
1.642
1.628
1.628
1.642
1.628
1.598
1.603
1.618
1.618
1.618
1.623
1.642
1.652
1.637
1.632
1.647
1.642
1.623
1.598
1.598
1.603
1.584
1.574
1.598
1.618
1.628
1.628
1.642
1.662
1.652
1.632
1.632
1.642
1.632
1.613
1.603
1.613
1.613
1.593
1.603
1.642
1.652
1.647
1.628
1.632
1.632
1.608
1.588
1.598
1.608
1.603
1.603
1.623
1.652
1.642
1.618
1.618
1.628
1.623
1.613
1.613
1.637
1.642
1.628
1.628
1.652
1.652
1.642
1.637
1.652
1.667
1.642
1.628
1.642
1.652
1.637
1.623
1.632
1.662
1.657
1.647
1.657
1.676
1.667
1.652
1.642
1.657
1.657
1.632
1.632
1.657
1.662
1.647
1.637
1.652
1.667
1.652
1.652
1.686
1.716
1.716
1.711
1.716
1.72
1.701
1.667
1.667
1.681
1.676
1.662
1.662
1.681
1.681
1.652
1.652
1.672
1.676
1.667
1.647
1.657
1.662
1.632
1.608
1.618
1.623
1.613
1.598
1.608
1.628
1.628
1.618
1.637
1.657
1.652
1.642
1.642
1.662
1.662
1.637
1.637
1.652
1.657
1.642
1.632
1.642
1.647
1.623
1.603
1.618
1.628
1.618
1.613
1.623
1.642
1.632
1.613
1.632
1.657
1.667
1.672
1.691
1.74
1.779
1.794
1.828
1.877
1.896
1.882
1.862
1.848
1.818
1.755
1.686
1.642
1.598
1.549
1.51
1.496
1.496
1.471
1.442
1.447
1.461
1.461
1.461
1.466
1.496
1.515
1.51
1.535
1.579
1.603
1.613
1.613
1.632
1.652
1.637
1.628
1.652
1.667
1.667
1.652
1.652
1.672
1.662
1.637
1.647
1.657
1.657
1.657
1.667
1.701
1.72
1.701
1.701
1.716
1.706
1.676
1.657
1.657
1.667
1.642
1.642
1.672
1.696
1.691
1.691
1.701
1.725
1.711
1.686
1.691
1.711
1.706
1.691
1.681
1.691
1.691
1.662
1.657
1.676
1.681
1.681
1.686
1.716
1.74
1.73
1.73
1.755
1.769
1.76
1.74
1.73
1.74
1.725
1.706
1.72
1.75
1.755
1.75
1.745
1.764
1.769
1.745
1.745
1.76
1.764
1.764
1.769
1.799
1.828
1.813
1.804
1.818
1.828
1.823
1.808
1.813
1.828
1.818
1.799
1.823
1.852
1.857
1.852
1.857
1.877
1.872
1.838
1.823
1.833
1.828
1.813
1.794
1.804
1.818
1.799
1.794
1.813
1.818
1.799
1.769
1.755
1.755
1.73
1.696
1.691
1.696
1.686
1.672
1.662
1.676
1.676
1.647
1.647
1.672
1.676
1.667
1.662
1.676
1.701
1.676
1.662
1.672
1.676
1.662
1.637
1.632
1.642
1.632
1.613
1.623
1.642
1.642
1.632
1.632
1.647
1.647
1.623
1.618
1.637
1.642
1.628
1.623
1.632
1.652
1.637
1.632
1.652
1.662
1.652
1.632
1.632
1.642
1.618
1.588
1.598
1.618
1.618
1.618
1.623
1.642
1.642
1.618
1.613
1.632
1.632
1.623
1.623
1.637
1.652
1.632
1.623
1.632
1.647
1.637
1.632
1.637
1.652
1.642
1.623
1.637
1.662
1.667
1.652
1.637
1.642
1.642
1.618
1.613
1.628
1.632
1.623
1.623
1.642
1.662
1.642
1.632
1.647
1.662
1.652
1.647
1.652
1.676
1.672
1.652
1.667
1.686
1.686
1.676
1.672
1.686
1.686
1.652
1.647
1.662
1.657
1.642
1.637
1.662
1.686
1.667
1.657
1.676
1.696
1.686
1.681
1.696
1.725
1.716
1.691
1.701
1.72
1.711
1.691
1.676
1.686
1.681
1.657
1.667
1.686
1.691
1.676
1.662
1.667
1.672
1.642
1.618
1.628
1.637
1.628
1.618
1.623
1.652
1.652
1.642
1.652
1.672
1.672
1.662
1.662
1.676
1.681
1.657
1.657
1.686
1.686
1.667
1.647
1.647
1.647
1.613
1.593
1.608
1.618
1.623
1.628
1.647
1.672
1.662
1.642
1.647
1.662
1.657
1.652
1.662
1.701
1.725
1.73
1.764
1.818
1.852
1.862
1.867
1.882
1.891
1.857
1.813
1.779
1.735
1.672
1.613
1.584
1.569
1.53
1.486
1.491
1.505
1.51
1.505
1.51
1.535
1.54
1.52
1.535
1.569
1.588
1.598
1.608
1.632
1.667
1.657
1.657
1.676
1.686
1.676
1.662
1.667
1.681
1.672
1.657
1.667
1.696
1.701
1.701
1.706
1.725
1.725
1.691
1.676
1.691
1.686
1.667
1.652
1.667
1.696
1.686
1.691
1.72
1.74
1.73
1.706
1.701
1.711
1.696
1.672
1.681
1.701
1.711
1.711
1.716
1.74
1.74
1.701
1.686
1.701
1.701
1.696
1.691
1.711
1.735
1.72
1.72
1.74
1.755
1.75
1.735
1.735
1.75
1.74
1.72
1.735
1.75
1.75
1.745
1.75
1.764
1.764
1.74
1.745
1.774
1.789
1.784
1.779
1.794
1.799
1.774
1.755
1.764
1.774
1.769
1.76
1.769
1.799
1.799
1.794
1.818
1.843
1.848
1.838
1.838
1.852
1.848
1.808
1.799
1.808
1.804
1.784
1.784
1.799
1.818
1.804
1.794
1.808
1.808
1.789
1.769
1.764
1.774
1.755
1.725
1.73
1.745
1.735
1.716
1.701
1.711
1.706
1.681
1.681
1.706
1.72
1.725
1.716
1.716
1.711
1.662
1.623
1.623
1.618
1.613
1.613
1.632
1.657
1.657
1.647
1.662
1.681
1.662
1.632
1.613
1.623
1.632
1.613
1.618
1.642
1.637
1.628
1.618
1.632
1.652
1.637
1.628
1.642
1.652
1.647
1.632
1.632
1.647
1.632
1.608
1.623
1.652
1.652
1.637
1.632
1.647
1.647
1.623
1.618
1.642
1.652
1.647
1.642
1.652
1.662
1.637
1.618
1.623
1.628
1.618
1.608
1.613
1.637
1.637
1.623
1.632
1.657
1.652
1.637
1.637
1.662
1.667
1.642
1.642
1.667
1.672
1.662
1.652
1.662
1.672
1.647
1.632
1.652
1.667
1.662
1.652
1.652
1.672
1.667
1.647
1.657
1.676
1.681
1.676
1.676
1.691
1.696
1.667
1.657
1.672
1.672
1.657
1.647
1.662
1.676
1.657
1.647
1.667
1.676
1.672
1.657
1.667
1.691
1.686
1.667
1.681
1.701
1.706
1.696
1.696
1.716
1.716
1.686
1.681
1.696
1.696
1.681
1.672
1.676
1.686
1.657
1.642
1.652
1.662
1.657
1.642
1.652
1.676
1.672
1.652
1.662
1.672
1.662
1.642
1.632
1.637
1.637
1.613
1.613
1.642
1.652
1.652
1.647
1.652
1.662
1.637
1.628
1.637
1.652
1.642
1.637
1.642
1.657
1.647
1.623
1.628
1.642
1.642
1.632
1.642
1.672
1.696
1.691
1.701
1.745
1.774
1.794
1.813
1.843
1.867
1.852
1.838
1.848
1.838
1.799
1.735
1.686
1.647
1.598
1.544
1.535
1.535
1.515
1.496
1.491
1.51
1.515
1.491
1.491
1.51
1.525
1.525
1.54
1.574
1.613
1.603
1.598
1.623
1.647
1.647
1.647
1.657
1.686
1.686
1.672
1.686
1.706
1.696
1.681
1.676
1.696
1.701
1.676
1.676
1.706
1.72
1.716
1.706
1.711
1.72
1.691
1.676
1.686
1.691
1.681
1.667
1.672
1.701
1.701
1.696
1.716
1.735
1.73
1.711
1.706
1.72
1.716
1.691
1.691
1.716
1.73
1.725
1.72
1.72
1.725
1.691
1.672
1.681
1.691
1.691
1.691
1.711
1.745
1.75
1.74
1.76
1.769
1.75
1.73
1.716
1.72
1.72
1.696
1.696
1.725
1.745
1.755
1.764
1.784
1.799
1.779
1.764
1.774
1.784
1.774
1.769
1.774
1.794
1.789
1.769
1.779
1.799
1.799
1.799
1.804
1.828
1.843
1.823
1.823
1.843
1.852
1.843
1.833
1.848
1.857
1.838
1.818
1.818
1.813
1.799
1.779
1.784
1.804
1.789
1.76
1.755
1.769
1.755
1.725
1.701
1.696
1.691
1.667
1.672
1.701
1.706
1.696
1.691
1.701
1.711
1.681
1.657
1.662
1.667
1.657
1.642
1.642
1.647
1.632
1.608
1.618
1.642
1.647
1.642
1.637
1.652
1.657
1.637
1.637
1.657
1.657
1.642
1.632
1.647
1.667
1.652
1.637
1.652
1.667
1.657
1.637
1.637
1.652
1.642
1.618
1.637
1.662
1.667
1.657
1.652
1.657
1.657
1.628
1.618
1.632
1.642
1.632
1.632
1.647
1.667
1.647
1.623
1.628
1.632
1.628
1.618
1.623
1.637
1.637
1.618
1.628
1.647
1.647
1.637
1.637
1.657
1.667
1.647
1.647
1.662
1.667
1.657
1.652
1.672
1.691
1.672
1.647
1.652
1.652
1.632
1.613
1.618
1.642
1.647
1.642
1.667
1.701
1.711
1.701
1.691
1.696
1.696
1.662
1.652
1.667
1.667
1.652
1.642
1.647
1.662
1.642
1.628
1.642
1.662
1.667
1.662
1.667
1.686
1.676
1.657
1.672
1.696
1.691
1.676
1.672
1.686
1.696
1.676
1.676
1.706
1.725
1.72
1.711
1.716
1.73
1.706
1.686
1.691
1.701
1.691
1.676
1.686
1.716
1.716
1.691
1.691
1.701
1.696
1.676
1.667
1.676
1.676
1.647
1.642
1.662
1.667
1.662
1.647
1.662
1.676
1.652
1.637
1.652
1.667
1.657
1.642
1.642
1.657
1.637
1.603
1.598
1.613
1.618
1.618
1.628
1.662
1.676
1.662
1.662
1.681
1.686
1.667
1.647
1.647
1.647
1.618
1.593
1.603
1.623
1.628
1.628
1.652
1.691
1.706
1.711
1.745
1.789
1.804
1.804
1.823
1.867
1.901
1.901
1.911
1.926
1.911
1.862
1.799
1.735
1.672
1.579
1.51
1.476
1.461
1.442
1.432
1.437
1.466
1.471
1.461
1.481
1.515
1.53
1.544
1.559
1.598
1.623
1.618
1.632
1.667
1.676
1.667
1.652
1.657
1.672
1.647
1.637
1.662
1.691
1.696
1.696
1.696
1.716
1.706
1.676
1.676
1.696
1.691
1.681
1.686
1.711
1.725
1.706
1.701
1.711
1.711
1.691
1.676
1.681
1.701
1.681
1.672
1.686
1.701
1.696
1.691
1.701
1.73
1.725
1.706
1.711
1.725
1.72
1.716
1.716
1.74
1.745
1.72
1.72
1.745
1.75
1.74
1.725
1.735
1.745
1.72
1.701
1.711
1.72
1.706
1.691
1.696
1.725
1.735
1.74
1.769
1.808
1.808
1.794
1.779
1.784
1.774
1.74
1.73
1.755
1.764
1.769
1.774
1.799
1.828
1.818
1.799
1.808
1.823
1.813
1.804
1.808
1.823
1.823
1.804
1.818
1.843
1.843
1.828
1.823
1.833
1.833
1.799
1.784
1.799
1.799
1.789
1.774
1.784
1.799
1.779
1.755
1.76
1.764
1.75
1.73
1.725
1.74
1.73
1.701
1.696
1.701
1.691
1.672
1.662
1.672
1.672
1.647
1.647
1.672
1.686
1.676
1.662
1.667
1.676
1.647
1.623
1.628
1.642
1.632
1.623
1.623
1.647
1.642
1.628
1.637
1.657
1.652
1.632
1.618
1.632
1.637
1.618
1.623
1.652
1.667
1.657
1.642
1.652
1.657
1.632
1.613
1.632
1.657
1.652
1.637
1.632
1.642
1.632
1.608
1.613
1.632
1.632
1.618
1.618
1.637
1.647
1.628
1.628
1.647
1.652
1.642
1.637
1.647
1.662
1.647
1.628
1.637
1.647
1.637
1.632
1.637
1.657
1.652
1.628
1.637
1.652
1.652
1.637
1.637
1.657
1.662
1.637
1.637
1.662
1.681
1.672
1.657
1.662
1.667
1.637
1.608
1.613
1.618
1.613
1.603
1.613
1.637
1.637
1.623
1.637
1.657
1.652
1.647
1.647
1.667
1.676
1.657
1.652
1.667
1.667
1.657
1.652
1.662
1.681
1.672
1.662
1.672
1.681
1.676
1.667
1.667
1.686
1.681
1.662
1.676
1.706
1.72
1.72
1.72
1.73
1.735
1.701
1.681
1.681
1.672
1.652
1.642
1.667
1.701
1.696
1.691
1.706
1.72
1.711
1.696
1.691
1.696
1.681
1.647
1.652
1.667
1.672
1.657
1.642
1.647
1.652
1.628
1.623
1.647
1.657
1.652
1.642
1.647
1.662
1.647
1.632
1.642
1.647
1.637
1.623
1.618
1.632
1.623
1.603
1.613
1.637
1.642
1.642
1.647
1.672
1.676
1.647
1.637
1.657
1.662
1.652
1.647
1.662
1.686
1.686
1.686
1.72
1.755
1.779
1.794
1.828
1.872
1.891
1.877
1.882
1.891
1.867
1.813
1.75
1.701
1.642
1.564
1.505
1.486
1.457
1.427
1.413
1.427
1.452
1.447
1.447
1.481
1.52
1.54
1.554
1.569
1.598
1.603
1.598
1.623
1.652
1.662
1.667
1.672
1.701
1.716
1.696
1.686
1.696
1.681
1.662
1.647
1.652
1.672
1.662
1.662
1.686
1.716
1.716
1.711
1.706
1.72
1.706
1.681
1.686
1.706
1.711
1.711
1.716
1.735
1.74
1.706
1.696
1.706
1.706
1.696
1.686
1.701
1.72
1.716
1.706
1.72
1.735
1.73
1.716
1.716
1.735
1.73
1.701
1.711
1.73
1.735
1.73
1.725
1.75
1.76
1.745
1.75
1.769
1.779
1.769
1.755
1.764
1.774
1.76
1.735
1.75
1.764
1.764
1.745
1.74
1.75
1.75
1.735
1.76
1.794
1.813
1.813
1.823
1.848
1.857
1.828
1.813
1.823
1.823
1.818
1.818
1.828
1.852
1.838
1.823
1.838
1.848
1.838
1.828
1.833
1.848
1.843
1.813
1.813
1.828
1.818
1.799
1.784
1.794
1.794
1.769
1.755
1.764
1.76
1.745
1.73
1.74
1.75
1.73
1.706
1.711
1.716
1.701
1.681
1.672
1.686
1.676
1.642
1.632
1.642
1.637
1.623
1.628
1.652
1.667
1.647
1.642
1.662
1.667
1.662
1.642
1.642
1.642
1.623
1.603
1.623
1.642
1.642
1.623
1.618
1.628
1.628
1.613
1.623
1.647
1.657
1.652
1.647
1.657
1.662
1.628
1.618
1.628
1.632
1.623
1.613
1.628
1.647
1.632
1.618
1.632
1.652
1.642
1.637
1.642
1.667
1.667
1.642
1.642
1.662
1.657
1.647
1.647
1.657
1.667
1.642
1.637
1.647
1.647
1.628
1.618
1.632
1.652
1.647
1.637
1.667
1.691
1.691
1.676
1.672
1.681
1.667
1.637
1.632
1.652
1.652
1.652
1.647
1.662
1.667
1.642
1.632
1.657
1.667
1.662
1.657
1.667
1.686
1.676
1.667
1.681
1.696
1.681
1.657
1.642
1.652
1.647
1.623
1.632
1.657
1.662
1.652
1.652
1.667
1.672
1.642
1.632
1.657
1.672
1.672
1.667
1.686
1.706
1.696
1.686
1.696
1.706
1.691
1.681
1.691
1.72
1.725
1.706
1.711
1.73
1.73
1.716
1.701
1.706
1.706
1.676
1.667
1.681
1.696
1.686
1.681
1.691
1.706
1.691
1.667
1.676
1.686
1.676
1.662
1.667
1.686
1.681
1.657
1.657
1.676
1.672
1.657
1.637
1.647
1.647
1.628
1.618
1.637
1.647
1.647
1.637
1.647
1.662
1.647
1.632
1.642
1.657
1.647
1.628
1.628
1.647
1.647
1.618
1.623
1.647
1.662
1.667
1.667
1.681
1.686
1.657
1.657
1.681
1.696
1.706
1.72
1.76
1.813
1.838
1.848
1.882
1.906
1.901
1.877
1.852
1.828
1.769
1.686
1.628
1.588
1.54
1.486
1.447
1.437
1.432
1.408
1.413
1.447
1.471
1.486
1.505
1.54
1.579
1.588
1.593
1.623
1.647
1.652
1.642
1.642
1.662
1.662
1.642
1.652
1.676
1.691
1.691
1.691
1.706
1.711
1.681
1.667
1.681
1.681
1.672
1.667
1.681
1.706
1.701
1.696
1.716
1.725
1.716
1.691
1.681
1.696
1.691
1.667
1.676
1.696
1.701
1.701
1.706
1.73
1.755
1.73
1.72
1.735
1.745
1.725
1.711
1.711
1.72
1.706
1.686
1.701
1.725
1.725
1.72
1.716
1.735
1.74
1.716
1.72
1.735
1.74
1.735
1.74
1.76
1.774
1.75
1.745
1.764
1.774
1.76
1.745
1.75
1.769
1.755
1.74
1.755
1.779
1.779
1.769
1.774
1.794
1.794
1.774
1.774
1.804
1.808
1.804
1.808
1.828
1.843
1.823
1.813
1.828
1.838
1.828
1.823
1.833
1.848
1.833
1.813
1.818
1.833
1.823
1.808
1.813
1.833
1.833
1.799
1.794
1.799
1.784
1.755
1.73
1.725
1.725
1.696
1.681
1.701
1.716
1.711
1.701
1.706
1.72
1.706
1.681
1.696
1.711
1.696
1.672
1.657
1.672
1.667
1.642
1.647
1.662
1.652
1.632
1.618
1.628
1.632
1.608
1.598
1.618
1.628
1.623
1.618
1.623
1.642
1.632
1.618
1.628
1.647
1.652
1.652
1.662
1.681
1.676
1.647
1.642
1.652
1.642
1.628
1.613
1.623
1.628
1.608
1.598
1.618
1.623
1.623
1.618
1.628
1.647
1.632
1.613
1.618
1.637
1.637
1.632
1.632
1.657
1.662
1.642
1.642
1.657
1.647
1.623
1.608
1.618
1.628
1.608
1.613
1.652
1.672
1.667
1.662
1.662
1.672
1.652
1.623
1.623
1.628
1.613
1.603
1.603
1.628
1.632
1.618
1.628
1.662
1.681
1.681
1.676
1.691
1.701
1.672
1.657
1.667
1.667
1.652
1.642
1.647
1.667
1.657
1.642
1.657
1.672
1.667
1.662
1.662
1.681
1.681
1.652
1.652
1.672
1.672
1.662
1.652
1.667
1.676
1.657
1.642
1.657
1.667
1.657
1.652
1.667
1.696
1.691
1.681
1.696
1.716
1.72
1.716
1.716
1.725
1.716
1.686
1.681
1.696
1.696
1.681
1.681
1.701
1.716
1.696
1.691
1.711
1.716
1.701
1.676
1.667
1.667
1.642
1.618
1.628
1.647
1.647
1.642
1.647
1.662
1.662
1.637
1.642
1.662
1.657
1.647
1.647
1.657
1.667
1.642
1.637
1.657
1.672
1.667
1.657
1.657
1.676
1.667
1.652
1.662
1.676
1.667
1.652
1.652
1.672
1.676
1.652
1.657
1.676
1.681
1.681
1.686
1.716
1.75
1.76
1.784
1.833
1.877
1.901
1.911
1.926
1.935
1.906
1.848
1.804
1.75
1.676
1.603
1.544
1.515
1.476
1.427
1.417
1.432
1.437
1.427
1.432
1.461
1.496
1.496
1.51
1.554
1.593
1.613
1.628
1.647
1.681
1.676
1.662
1.681
1.706
1.711
1.701
1.696
1.711
1.701
1.676
1.676
1.691
1.691
1.681
1.681
1.701
1.72
1.706
1.691
1.701
1.701
1.691
1.676
1.681
1.696
1.686
1.672
1.691
1.716
1.716
1.706
1.706
1.725
1.72
1.686
1.681
1.701
1.711
1.711
1.72
1.745
1.764
1.75
1.74
1.755
1.755
1.73
1.706
1.701
1.716
1.711
1.706
1.73
1.755
1.755
1.745
1.74
1.75
1.75
1.72
1.716
1.735
1.745
1.745
1.745
1.764
1.774
1.755
1.745
1.764
1.779
1.774
1.769
1.784
1.813
1.808
1.789
1.799
1.813
1.808
1.794
1.789
1.804
1.799
1.779
1.784
1.808
1.818
1.808
1.804
1.813
1.833
1.813
1.813
1.833
1.852
1.843
1.838
1.843
1.857
1.838
1.808
1.808
1.813
1.799
1.779
1.769
1.784
1.774
1.75
1.735
1.74
1.716
1.686
1.672
1.676
1.691
1.672
1.662
1.681
1.691
1.686
1.676
1.681
1.686
1.667
1.642
1.652
1.676
1.681
1.672
1.672
1.681
1.676
1.647
1.642
1.652
1.642
1.623
1.608
1.618
1.632
1.618
1.613
1.637
1.657
1.652
1.642
1.642
1.657
1.637
1.608
1.618
1.637
1.642
1.632
1.632
1.652
1.657
1.628
1.628
1.642
1.637
1.623
1.613
1.618
1.628
1.603
1.593
1.618
1.628
1.628
1.623
1.637
1.657
1.642
1.618
1.628
1.642
1.637
1.623
1.618
1.632
1.637
1.618
1.623
1.652
1.667
1.662
1.652
1.667
1.672
1.647
1.632
1.647
1.657
1.647
1.647
1.662
1.686
1.681
1.657
1.662
1.672
1.662
1.647
1.652
1.681
1.686
1.667
1.672
1.691
1.691
1.676
1.667
1.672
1.686
1.667
1.652
1.676
1.691
1.691
1.681
1.686
1.706
1.701
1.686
1.711
1.735
1.74
1.725
1.716
1.72
1.711
1.676
1.667
1.676
1.672
1.662
1.652
1.667
1.676
1.657
1.647
1.662
1.672
1.662
1.652
1.652
1.662
1.642
1.613
1.613
1.632
1.632
1.628
1.632
1.657
1.667
1.647
1.652
1.667
1.657
1.637
1.618
1.623
1.637
1.618
1.608
1.628
1.642
1.642
1.642
1.662
1.681
1.672
1.652
1.657
1.672
1.667
1.652
1.652
1.672
1.681
1.667
1.676
1.711
1.725
1.735
1.75
1.784
1.823
1.828
1.838
1.862
1.872
1.843
1.799
1.75
1.706
1.632
1.559
1.53
1.51
1.476
1.447
1.437
1.457
1.466
1.457
1.471
1.5
1.52
1.53
1.544
1.579
1.613
1.613
1.623
1.657
1.681
1.681
1.676
1.686
1.701
1.681
1.657
1.662
1.681
1.681
1.676
1.681
1.706
1.711
1.691
1.691
1.716
1.72
1.716
1.711
1.72
1.73
1.701
1.686
1.701
1.711
1.701
1.696
1.706
1.725
1.72
1.696
1.701
1.711
1.696
1.681
1.676
1.696
1.706
1.696
1.711
1.745
1.76
1.75
1.74
1.745
1.745
1.716
1.696
1.711
1.72
1.72
1.725
1.75
1.774
1.769
1.745
1.755
1.764
1.755
1.74
1.74
1.76
1.769
1.75
1.75
1.774
1.779
1.769
1.764
1.779
1.789
1.769
1.764
1.784
1.804
1.799
1.794
1.804
1.823
1.818
1.804
1.818
1.848
1.852
1.848
1.843
1.852
1.848
1.808
1.794
1.804
1.799
1.789
1.784
1.804
1.833
1.833
1.833
1.857
1.867
1.848
1.818
1.808
1.808
1.794
1.764
1.764
1.769
1.76
1.745
1.73
1.735
1.725
1.691
1.686
1.701
1.701
1.686
1.676
1.681
1.686
1.657
1.642
1.652
1.652
1.637
1.623
1.628
1.647
1.642
1.623
1.632
1.647
1.642
1.632
1.632
1.652
1.657
1.637
1.642
1.662
1.662
1.652
1.642
1.647
1.647
1.623
1.603
1.613
1.628
1.623
1.623
1.632
1.652
1.642
1.613
1.618
1.628
1.623
1.613
1.603
1.618
1.623
1.598
1.608
1.632
1.637
1.632
1.628
1.637
1.647
1.623
1.613
1.628
1.632
1.618
1.598
1.603
1.623
1.628
1.613
1.632
1.657
1.667
1.672
1.681
1.701
1.696
1.652
1.637
1.642
1.642
1.623
1.608
1.618
1.642
1.632
1.632
1.652
1.667
1.657
1.647
1.652
1.672
1.662
1.642
1.652
1.672
1.667
1.652
1.647
1.662
1.672
1.647
1.642
1.662
1.672
1.662
1.657
1.667
1.681
1.657
1.652
1.676
1.691
1.681
1.667
1.667
1.676
1.662
1.642
1.647
1.672
1.676
1.681
1.686
1.706
1.711
1.681
1.676
1.686
1.686
1.676
1.667
1.676
1.686
1.667
1.652
1.667
1.681
1.676
1.662
1.667
1.681
1.672
1.647
1.652
1.662
1.647
1.623
1.618
1.637
1.647
1.628
1.637
1.672
1.681
1.672
1.657
1.662
1.672
1.637
1.618
1.632
1.647
1.642
1.632
1.637
1.657
1.647
1.623
1.623
1.637
1.632
1.623
1.623
1.652
1.667
1.652
1.652
1.676
1.676
1.662
1.657
1.672
1.691
1.681
1.681
1.72
1.76
1.779
1.799
1.818
1.848
1.843
1.813
1.804
1.789
1.75
1.696
1.647
1.623
1.584
1.52
1.486
1.476
1.461
1.442
1.432
1.457
1.491
1.496
1.505
1.535
1.564
1.579
1.593
1.623
1.657
1.662
1.652
1.667
1.691
1.691
1.676
1.662
1.672
1.667
1.642
1.642
1.672
1.686
1.686
1.672
1.676
1.686
1.672
1.662
1.691
1.711
1.711
1.706
1.716
1.73
1.72
1.691
1.696
1.711
1.706
1.691
1.691
1.711
1.725
1.706
1.711
1.735
1.745
1.74
1.73
1.74
1.75
1.725
1.706
1.716
1.725
1.716
1.706
1.706
1.725
1.725
1.711
1.725
1.75
1.74
1.72
1.711
1.72
1.72
1.691
1.691
1.716
1.73
1.735
1.745
1.769
1.789
1.769
1.75
1.76
1.769
1.76
1.755
1.764
1.789
1.794
1.779
1.799
1.823
1.833
1.823
1.818
1.823
1.823
1.789
1.779
1.794
1.794
1.784
1.779
1.799
1.823
1.818
1.818
1.838
1.857
1.848
1.833
1.828
1.843
1.828
1.804
1.804
1.813
1.804
1.784
1.774
1.779
1.764
1.725
1.711
1.72
1.72
1.706
1.691
1.706
1.716
1.696
1.676
1.691
1.696
1.681
1.662
1.662
1.676
1.662
1.637
1.642
1.662
1.662
1.652
1.657
1.681
1.686
1.647
1.632
1.642
1.637
1.618
1.598
1.608
1.623
1.608
1.603
1.628
1.647
1.647
1.632
1.637
1.652
1.647
1.628
1.642
1.662
1.657
1.637
1.632
1.642
1.647
1.623
1.623
1.637
1.642
1.637
1.628
1.637
1.652
1.632
1.613
1.628
1.642
1.647
1.642
1.657
1.676
1.667
1.642
1.647
1.657
1.642
1.618
1.603
1.613
1.618
1.598
1.608
1.642
1.672
1.681
1.681
1.691
1.696
1.667
1.642
1.637
1.623
1.603
1.588
1.593
1.623
1.623
1.613
1.632
1.652
1.657
1.652
1.647
1.662
1.662
1.637
1.637
1.667
1.676
1.672
1.672
1.686
1.706
1.681
1.657
1.672
1.676
1.662
1.647
1.647
1.662
1.652
1.632
1.637
1.657
1.657
1.652
1.652
1.672
1.676
1.657
1.657
1.686
1.691
1.686
1.676
1.686
1.701
1.691
1.681
1.706
1.725
1.72
1.711
1.706
1.716
1.701
1.672
1.672
1.681
1.676
1.667
1.672
1.696
1.706
1.681
1.676
1.696
1.696
1.691
1.681
1.701
1.716
1.691
1.662
1.667
1.667
1.642
1.618
1.613
1.628
1.632
1.628
1.652
1.681
1.686
1.676
1.672
1.681
1.676
1.647
1.632
1.647
1.652
1.642
1.632
1.647
1.662
1.637
1.618
1.632
1.652
1.647
1.637
1.642
1.662
1.662
1.647
1.662
1.696
1.711
1.716
1.725
1.769
1.808
1.813
1.833
1.867
1.887
1.882
1.877
1.872
1.862
1.808
1.74
1.701
1.652
1.588
1.53
1.491
1.476
1.452
1.422
1.437
1.471
1.486
1.496
1.505
1.54
1.564
1.554
1.569
1.603
1.623
1.632
1.642
1.667
1.691
1.681
1.672
1.691
1.706
1.696
1.681
1.676
1.691
1.691
1.676
1.691
1.716
1.711
1.696
1.691
1.711
1.72
1.691
1.681
1.701
1.711
1.706
1.701
1.711
1.725
1.701
1.681
1.701
1.716
1.716
1.716
1.716
1.73
1.72
1.691
1.701
1.72
1.72
1.706
1.701
1.711
1.72
1.701
1.706
1.73
1.735
1.725
1.725
1.745
1.764
1.745
1.725
1.74
1.75
1.74
1.72
1.72
1.735
1.73
1.711
1.72
1.745
1.745
1.735
1.735
1.755
1.764
1.745
1.745
1.769
1.784
1.789
1.794
1.813
1.833
1.818
1.804
1.813
1.818
1.804
1.789
1.784
1.799
1.799
1.784
1.799
1.823
1.833
1.823
1.823
1.838
1.843
1.808
1.794
1.808
1.818
1.818
1.823
1.843
1.857
1.828
1.804
1.808
1.808
1.774
1.74
1.725
1.735
1.725
1.706
1.711
1.73
1.73
1.716
1.701
1.706
1.701
1.672
1.652
1.657
1.657
1.642
1.632
1.642
1.662
1.652
1.647
1.672
1.691
1.686
1.672
1.662
1.672
1.652
1.618
1.613
1.632
1.632
1.628
1.632
1.657
1.672
1.647
1.642
1.652
1.652
1.632
1.618
1.623
1.637
1.623
1.613
1.628
1.647
1.647
1.632
1.628
1.647
1.652
1.642
1.657
1.681
1.676
1.662
1.647
1.652
1.647
1.613
1.598
1.613
1.623
1.618
1.618
1.637
1.662
1.647
1.628
1.642
1.667
1.667
1.667
1.667
1.681
1.672
1.642
1.647
1.662
1.647
1.628
1.623
1.642
1.652
1.632
1.623
1.642
1.647
1.637
1.628
1.642
1.667
1.652
1.637
1.652
1.667
1.657
1.647
1.647
1.662
1.657
1.632
1.647
1.676
1.681
1.667
1.652
1.657
1.657
1.637
1.628
1.647
1.652
1.647
1.642
1.657
1.676
1.657
1.632
1.642
1.652
1.637
1.623
1.623
1.642
1.642
1.628
1.642
1.676
1.691
1.696
1.696
1.706
1.701
1.657
1.637
1.642
1.642
1.628
1.623
1.647
1.681
1.686
1.691
1.716
1.73
1.725
1.711
1.706
1.72
1.716
1.696
1.701
1.711
1.701
1.681
1.672
1.686
1.696
1.672
1.667
1.691
1.701
1.691
1.681
1.686
1.691
1.667
1.642
1.652
1.662
1.647
1.632
1.628
1.642
1.632
1.603
1.608
1.632
1.632
1.628
1.632
1.662
1.681
1.667
1.662
1.672
1.676
1.662
1.647
1.647
1.652
1.623
1.598
1.618
1.642
1.647
1.642
1.647
1.667
1.662
1.632
1.637
1.662
1.672
1.681
1.701
1.745
1.784
1.789
1.813
1.857
1.882
1.877
1.867
1.862
1.867
1.823
1.779
1.75
1.711
1.647
1.584
1.54
1.52
1.486
1.437
1.437
1.461
1.476
1.476
1.481
1.505
1.525
1.515
1.53
1.569
1.603
1.623
1.632
1.662
1.691
1.681
1.667
1.672
1.676
1.667
1.652
1.647
1.667
1.672
1.662
1.681
1.716
1.72
1.711
1.701
1.711
1.72
1.681
1.662
1.667
1.672
1.667
1.667
1.686
1.72
1.711
1.696
1.711
1.725
1.72
1.701
1.691
1.706
1.706
1.686
1.701
1.73
1.745
1.74
1.74
1.76
1.769
1.74
1.725
1.735
1.73
1.716
1.711
1.72
1.745
1.73
1.72
1.74
1.76
1.755
1.74
1.74
1.755
1.745
1.725
1.73
1.755
1.76
1.75
1.75
1.764
1.779
1.769
1.769
1.789
1.794
1.779
1.764
1.764
1.779
1.764
1.755
1.779
1.813
1.823
1.823
1.823
1.838
1.828
1.799
1.804
1.828
1.833
1.838
1.848
1.877
1.887
1.857
1.843
1.852
1.848
1.823
1.804
1.804
1.813
1.799
1.779
1.789
1.808
1.804
1.799
1.794
1.799
1.779
1.74
1.725
1.73
1.725
1.706
1.701
1.711
1.716
1.686
1.676
1.681
1.676
1.657
1.632
1.637
1.662
1.657
1.652
1.672
1.691
1.686
1.667
1.662
1.672
1.662
1.637
1.642
1.662
1.657
1.647
1.642
1.657
1.667
1.642
1.632
1.652
1.657
1.647
1.642
1.657
1.672
1.652
1.628
1.642
1.662
1.662
1.657
1.652
1.657
1.647
1.613
1.613
1.628
1.623
1.608
1.608
1.628
1.642
1.623
1.623
1.647
1.662
1.657
1.642
1.637
1.647
1.628
1.618
1.637
1.657
1.652
1.642
1.647
1.672
1.667
1.637
1.637
1.642
1.632
1.618
1.618
1.642
1.657
1.637
1.632
1.657
1.662
1.652
1.642
1.647
1.662
1.642
1.623
1.637
1.652
1.652
1.647
1.657
1.676
1.672
1.652
1.662
1.686
1.686
1.667
1.652
1.657
1.662
1.637
1.628
1.642
1.647
1.637
1.632
1.647
1.672
1.662
1.647
1.662
1.672
1.662
1.642
1.642
1.657
1.652
1.628
1.637
1.662
1.672
1.657
1.652
1.662
1.672
1.642
1.632
1.642
1.647
1.632
1.628
1.647
1.681
1.681
1.667
1.681
1.696
1.691
1.672
1.667
1.672
1.662
1.637
1.647
1.676
1.686
1.676
1.667
1.676
1.681
1.652
1.637
1.647
1.652
1.652
1.657
1.676
1.706
1.701
1.681
1.696
1.706
1.696
1.676
1.667
1.686
1.691
1.672
1.681
1.706
1.706
1.696
1.686
1.696
1.696
1.667
1.662
1.686
1.691
1.676
1.662
1.657
1.667
1.642
1.613
1.618
1.628
1.628
1.623
1.632
1.647
1.642
1.613
1.623
1.652
1.662
1.657
1.647
1.662
1.672
1.652
1.637
1.647
1.647
1.632
1.618
1.628
1.642
1.632
1.618
1.637
1.657
1.657
1.647
1.647
1.667
1.667
1.642
1.652
1.681
1.701
1.716
1.74
1.789
1.838
1.843
1.857
1.891
1.906
1.891
1.862
1.838
1.813
1.75
1.681
1.637
1.608
1.559
1.51
1.486
1.486
1.471
1.442
1.437
1.461
1.471
1.476
1.486
1.52
1.559
1.559
1.569
1.608
1.637
1.647
1.647
1.662
1.686
1.676
1.662
1.686
1.706
1.701
1.681
1.676
1.696
1.696
1.672
1.681
1.701
1.701
1.696
1.686
1.701
1.701
1.672
1.657
1.681
1.691
1.686
1.681
1.696
1.716
1.706
1.686
1.701
1.72
1.73
1.735
1.74
1.76
1.76
1.735
1.735
1.745
1.735
1.716
1.706
1.72
1.735
1.716
1.716
1.74
1.755
1.75
1.745
1.75
1.764
1.745
1.725
1.735
1.745
1.74
1.73
1.73
1.745
1.745
1.725
1.725
1.745
1.745
1.735
1.735
1.755
1.774
1.76
1.76
1.789
1.818
1.818
1.808
1.808
1.823
1.808
1.784
1.789
1.799
1.789
1.779
1.779
1.808
1.818
1.804
1.823
1.852
1.857
1.848
1.848
1.857
1.867
1.838
1.818
1.833
1.838
1.823
1.813
1.813
1.823
1.808
1.784
1.789
1.799
1.789
1.769
1.764
1.779
1.774
1.745
1.745
1.76
1.755
1.73
1.711
1.711
1.706
1.667
1.647
1.667
1.676
1.662
1.647
1.652
1.672
1.657
1.637
1.647
1.667
1.662
1.657
1.657
1.672
1.667
1.637
1.632
1.647
1.647
1.637
1.632
1.657
1.672
1.652
1.642
1.657
1.657
1.642
1.628
1.632
1.642
1.632
1.613
1.632
1.647
1.647
1.637
1.642
1.662
1.667
1.637
1.632
1.642
1.637
1.623
1.618
1.632
1.647
1.628
1.623
1.642
1.657
1.647
1.632
1.628
1.637
1.613
1.593
1.608
1.628
1.632
1.623
1.628
1.647
1.652
1.623
1.623
1.632
1.632
1.623
1.618
1.632
1.642
1.623
1.628
1.662
1.681
1.667
1.647
1.642
1.657
1.637
1.613
1.623
1.637
1.642
1.637
1.637
1.652
1.652
1.628
1.632
1.657
1.667
1.662
1.657
1.681
1.691
1.662
1.642
1.642
1.642
1.618
1.603
1.608
1.632
1.632
1.628
1.647
1.676
1.676
1.672
1.672
1.681
1.672
1.632
1.628
1.647
1.642
1.632
1.623
1.637
1.652
1.632
1.628
1.647
1.662
1.657
1.652
1.657
1.672
1.657
1.637
1.652
1.681
1.686
1.681
1.686
1.706
1.696
1.662
1.642
1.642
1.632
1.623
1.623
1.652
1.686
1.686
1.696
1.72
1.73
1.716
1.696
1.691
1.696
1.676
1.662
1.676
1.701
1.701
1.686
1.681
1.696
1.696
1.672
1.672
1.686
1.676
1.662
1.647
1.667
1.672
1.642
1.628
1.637
1.647
1.637
1.623
1.632
1.647
1.637
1.618
1.637
1.667
1.672
1.667
1.672
1.691
1.681
1.647
1.637
1.647
1.637
1.618
1.608
1.623
1.637
1.618
1.613
1.632
1.642
1.637
1.628
1.637
1.652
1.642
1.618
1.632
1.647
1.647
1.642
1.652
1.686
1.716
1.725
1.764
1.823
1.867
1.891
1.906
1.931
1.945
1.911
1.862
1.818
1.755
1.667
1.579
1.52
1.486
1.442
1.408
1.417
1.447
1.466
1.476
1.496
1.525
1.53
1.51
1.52
1.554
1.574
1.584
1.588
1.618
1.637
1.628
1.628
1.657
1.681
1.676
1.667
1.672
1.691
1.676
1.657
1.667
1.676
1.672
1.672
1.681
1.706
1.711
1.681
1.676
1.691
1.686
1.672
1.662
1.681
1.696
1.672
1.657
1.676
1.691
1.686
1.676
1.681
1.701
1.691
1.672
1.686
1.711
1.706
1.701
1.701
1.725
1.74
1.73
1.745
1.774
1.774
1.76
1.745
1.745
1.745
1.716
1.701
1.716
1.73
1.73
1.735
1.755
1.779
1.774
1.755
1.76
1.774
1.755
1.73
1.72
1.735
1.745
1.73
1.745
1.784
1.804
1.808
1.804
1.813
1.818
1.789
1.774
1.794
1.808
1.804
1.799
1.813
1.843
1.833
1.813
1.818
1.833
1.833
1.828
1.838
1.862
1.862
1.833
1.833
1.848
1.843
1.828
1.813
1.818
1.833
1.813
1.813
1.838
1.843
1.823
1.804
1.804
1.804
1.784
1.755
1.755
1.769
1.764
1.745
1.73
1.735
1.725
1.686
1.672
1.672
1.662
1.642
1.632
1.652
1.667
1.647
1.642
1.667
1.676
1.667
1.652
1.662
1.681
1.667
1.637
1.637
1.647
1.637
1.623
1.613
1.623
1.623
1.598
1.593
1.618
1.623
1.618
1.608
1.618
1.637
1.632
1.628
1.652
1.667
1.657
1.642
1.647
1.667
1.652
1.632
1.637
1.652
1.647
1.637
1.632
1.647
1.647
1.618
1.613
1.628
1.628
1.623
1.618
1.628
1.637
1.618
1.603
1.623
1.637
1.632
1.623
1.628
1.642
1.632
1.613
1.623
1.637
1.632
1.623
1.623
1.642
1.642
1.623
1.623
1.647
1.657
1.652
1.642
1.657
1.667
1.642
1.623
1.637
1.647
1.642
1.632
1.642
1.662
1.657
1.637
1.647
1.662
1.657
1.642
1.632
1.647
1.652
1.637
1.647
1.676
1.681
1.667
1.652
1.662
1.667
1.642
1.632
1.652
1.667
1.662
1.652
1.657
1.676
1.662
1.642
1.652
1.672
1.667
1.657
1.657
1.676
1.676
1.647
1.637
1.657
1.657
1.647
1.647
1.667
1.686
1.662
1.647
1.657
1.672
1.662
1.652
1.657
1.672
1.662
1.637
1.652
1.672
1.672
1.662
1.657
1.667
1.672
1.647
1.647
1.676
1.691
1.691
1.686
1.696
1.706
1.681
1.667
1.681
1.691
1.676
1.667
1.676
1.706
1.716
1.701
1.711
1.72
1.711
1.691
1.686
1.701
1.716
1.696
1.696
1.711
1.716
1.701
1.686
1.691
1.706
1.681
1.672
1.686
1.701
1.696
1.681
1.681
1.691
1.672
1.642
1.647
1.672
1.667
1.652
1.647
1.657
1.652
1.623
1.613
1.623
1.632
1.623
1.623
1.642
1.662
1.647
1.637
1.662
1.681
1.672
1.652
1.652
1.672
1.662
1.637
1.647
1.667
1.672
1.662
1.657
1.676
1.681
1.652
1.647
1.672
1.681
1.681
1.691
1.73
1.789
1.808
1.848
1.901
1.95
1.96
1.95
1.931
1.906
1.833
1.73
1.662
1.613
1.554
1.5
1.471
1.466
1.466
1.447
1.447
1.461
1.471
1.461
1.466
1.496
1.535
1.535
1.544
1.588
1.628
1.642
1.647
1.657
1.681
1.686
1.672
1.676
1.691
1.686
1.672
1.672
1.691
1.691
1.672
1.676
1.706
1.711
1.696
1.686
1.691
1.696
1.672
1.652
1.667
1.681
1.681
1.681
1.701
1.73
1.735
1.72
1.73
1.74
1.725
1.706
1.686
1.696
1.696
1.672
1.676
1.701
1.716
1.72
1.73
1.75
1.764
1.74
1.725
1.74
1.75
1.74
1.725
1.725
1.74
1.735
1.716
1.73
1.75
1.75
1.74
1.74
1.75
1.745
1.716
1.72
1.75
1.769
1.769
1.769
1.789
1.804
1.789
1.779
1.794
1.799
1.784
1.774
1.779
1.804
1.804
1.794
1.818
1.852
1.848
1.833
1.823
1.838
1.838
1.808
1.808
1.823
1.833
1.823
1.823
1.843
1.857
1.833
1.813
1.823
1.833
1.833
1.823
1.833
1.852
1.843
1.818
1.818
1.823
1.808
1.794
1.789
1.804
1.804
1.774
1.764
1.769
1.76
1.725
1.691
1.686
1.691
1.667
1.652
1.672
1.686
1.686
1.681
1.676
1.681
1.657
1.623
1.618
1.628
1.623
1.623
1.623
1.647
1.657
1.642
1.642
1.667
1.672
1.662
1.652
1.662
1.672
1.647
1.628
1.632
1.642
1.632
1.623
1.632
1.652
1.647
1.632
1.642
1.657
1.647
1.632
1.628
1.642
1.642
1.618
1.618
1.642
1.657
1.647
1.632
1.632
1.642
1.628
1.618
1.632
1.652
1.647
1.642
1.647
1.662
1.642
1.613
1.618
1.628
1.632
1.618
1.623
1.647
1.662
1.637
1.628
1.642
1.637
1.628
1.618
1.632
1.647
1.632
1.623
1.642
1.662
1.657
1.647
1.647
1.657
1.652
1.623
1.632
1.647
1.647
1.642
1.642
1.657
1.667
1.657
1.667
1.686
1.686
1.667
1.647
1.647
1.657
1.632
1.618
1.637
1.657
1.662
1.652
1.657
1.676
1.662
1.632
1.632
1.652
1.657
1.657
1.662
1.681
1.686
1.662
1.662
1.672
1.662
1.637
1.623
1.632
1.652
1.642
1.632
1.657
1.676
1.672
1.662
1.667
1.686
1.681
1.657
1.667
1.681
1.676
1.667
1.662
1.676
1.681
1.652
1.647
1.676
1.696
1.696
1.696
1.711
1.725
1.701
1.672
1.667
1.667
1.657
1.647
1.657
1.691
1.691
1.676
1.691
1.716
1.72
1.711
1.706
1.72
1.725
1.706
1.701
1.716
1.711
1.686
1.667
1.681
1.701
1.696
1.691
1.72
1.745
1.74
1.72
1.716
1.716
1.686
1.642
1.632
1.637
1.637
1.623
1.618
1.632
1.637
1.623
1.623
1.652
1.667
1.667
1.662
1.672
1.686
1.672
1.652
1.662
1.676
1.667
1.652
1.647
1.662
1.657
1.637
1.657
1.686
1.686
1.672
1.667
1.676
1.681
1.657
1.652
1.672
1.672
1.657
1.642
1.657
1.686
1.691
1.701
1.76
1.818
1.862
1.901
1.945
1.984
1.979
1.94
1.896
1.843
1.755
1.662
1.588
1.549
1.5
1.437
1.413
1.432
1.442
1.437
1.437
1.452
1.476
1.471
1.476
1.515
1.554
1.574
1.593
1.623
1.657
1.667
1.657
1.676
1.706
1.706
1.696
1.691
1.701
1.691
1.652
1.637
1.642
1.642
1.632
1.642
1.672
1.711
1.701
1.696
1.72
1.735
1.725
1.711
1.716
1.74
1.73
1.706
1.711
1.73
1.735
1.73
1.73
1.745
1.755
1.735
1.73
1.745
1.74
1.716
1.691
1.696
1.711
1.696
1.691
1.72
1.75
1.75
1.74
1.74
1.755
1.745
1.711
1.716
1.74
1.745
1.745
1.75
1.764
1.774
1.74
1.73
1.755
1.764
1.76
1.75
1.755
1.769
1.75
1.72
1.725
1.735
1.735
1.735
1.755
1.779
1.789
1.784
1.804
1.823
1.828
1.818
1.818
1.838
1.848
1.823
1.813
1.828
1.833
1.823
1.818
1.828
1.843
1.833
1.823
1.848
1.867
1.862
1.857
1.867
1.891
1.882
1.848
1.843
1.843
1.823
1.794
1.774
1.774
1.769
1.74
1.735
1.76
1.774
1.764
1.75
1.745
1.745
1.716
1.696
1.701
1.701
1.681
1.667
1.662
1.686
1.691
1.676
1.681
1.701
1.691
1.667
1.647
1.652
1.647
1.613
1.598
1.613
1.623
1.618
1.618
1.628
1.637
1.613
1.598
1.608
1.618
1.603
1.588
1.588
1.603
1.593
1.574
1.584
1.603
1.608
1.603
1.608
1.632
1.647
1.623
1.613
1.632
1.637
1.632
1.628
1.637
1.647
1.623
1.598
1.608
1.618
1.603
1.588
1.588
1.613
1.608
1.588
1.598
1.628
1.632
1.628
1.628
1.647
1.657
1.632
1.623
1.632
1.632
1.618
1.603
1.613
1.632
1.618
1.603
1.618
1.632
1.623
1.608
1.608
1.623
1.618
1.598
1.618
1.652
1.657
1.647
1.637
1.642
1.647
1.618
1.613
1.642
1.662
1.657
1.652
1.676
1.706
1.701
1.681
1.676
1.672
1.647
1.618
1.608
1.623
1.618
1.593
1.603
1.632
1.642
1.652
1.667
1.691
1.701
1.667
1.652
1.657
1.652
1.637
1.623
1.628
1.642
1.632
1.623
1.642
1.667
1.667
1.662
1.657
1.662
1.642
1.618
1.632
1.676
1.701
1.711
1.706
1.72
1.716
1.681
1.662
1.667
1.662
1.657
1.662
1.691
1.725
1.72
1.716
1.735
1.74
1.72
1.696
1.691
1.706
1.696
1.667
1.667
1.672
1.667
1.657
1.652
1.657
1.657
1.628
1.618
1.632
1.632
1.613
1.603
1.613
1.637
1.628
1.623
1.637
1.652
1.647
1.632
1.632
1.647
1.642
1.618
1.628
1.647
1.652
1.652
1.647
1.657
1.657
1.628
1.618
1.642
1.652
1.642
1.637
1.647
1.672
1.657
1.642
1.657
1.672
1.652
1.628
1.623
1.647
1.657
1.657
1.691
1.74
1.774
1.804
1.833
1.872
1.896
1.877
1.857
1.843
1.804
1.745
1.681
1.637
1.593
1.525
1.461
1.447
1.437
1.417
1.403
1.408
1.437
1.447
1.437
1.457
1.491
1.51
1.525
1.544
1.579
1.603
1.598
1.613
1.657
1.681
1.686
1.686
1.701
1.716
1.701
1.681
1.691
1.701
1.681
1.652
1.637
1.642
1.632
1.608
1.628
1.662
1.676
1.681
1.691
1.716
1.72
1.691
1.676
1.701
1.716
1.72
1.73
1.745
1.76
1.735
1.706
1.701
1.696
1.672
1.657
1.667
1.701
1.72
1.72
1.735
1.76
1.76
1.74
1.725
1.73
1.735
1.711
1.711
1.745
1.769
1.764
1.755
1.755
1.764
1.735
1.711
1.72
1.735
1.735
1.735
1.75
1.779
1.784
1.764
1.774
1.794
1.799
1.794
1.789
1.804
1.818
1.804
1.804
1.828
1.843
1.833
1.828
1.838
1.857
1.848
1.843
1.857
1.867
1.857
1.838
1.833
1.852
1.848
1.813
1.818
1.838
1.852
1.852
1.857
1.877
1.891
1.867
1.852
1.852
1.838
1.808
1.784
1.784
1.799
1.784
1.76
1.764
1.779
1.774
1.764
1.76
1.764
1.755
1.72
1.711
1.716
1.701
1.672
1.657
1.667
1.676
1.652
1.652
1.681
1.691
1.686
1.672
1.676
1.686
1.662
1.637
1.642
1.647
1.637
1.618
1.623
1.642
1.647
1.632
1.637
1.652
1.647
1.632
1.618
1.632
1.637
1.608
1.603
1.632
1.647
1.642
1.632
1.642
1.657
1.632
1.618
1.637
1.657
1.657
1.642
1.642
1.652
1.642
1.613
1.618
1.637
1.637
1.628
1.628
1.642
1.652
1.628
1.613
1.623
1.628
1.623
1.623
1.632
1.652
1.642
1.632
1.642
1.652
1.637
1.623
1.628
1.652
1.657
1.642
1.662
1.691
1.696
1.691
1.686
1.701
1.701
1.667
1.647
1.657
1.657
1.642
1.632
1.642
1.662
1.652
1.642
1.662
1.681
1.676
1.662
1.652
1.662
1.652
1.618
1.613
1.628
1.628
1.618
1.618
1.637
1.662
1.647
1.652
1.676
1.696
1.691
1.681
1.686
1.701
1.681
1.662
1.676
1.691
1.691
1.681
1.686
1.701
1.686
1.652
1.647
1.662
1.676
1.672
1.672
1.686
1.696
1.676
1.672
1.691
1.696
1.681
1.662
1.667
1.686
1.681
1.667
1.686
1.706
1.701
1.681
1.672
1.676
1.667
1.647
1.662
1.691
1.711
1.716
1.72
1.735
1.735
1.701
1.672
1.667
1.652
1.623
1.588
1.584
1.603
1.598
1.588
1.608
1.628
1.623
1.618
1.628
1.652
1.657
1.632
1.632
1.647
1.647
1.637
1.632
1.647
1.652
1.632
1.632
1.667
1.696
1.691
1.681
1.676
1.686
1.652
1.618
1.618
1.628
1.632
1.642
1.672
1.72
1.745
1.74
1.764
1.804
1.823
1.833
1.838
1.862
1.877
1.852
1.828
1.818
1.779
1.72
1.662
1.623
1.598
1.544
1.496
1.471
1.461
1.442
1.427
1.437
1.471
1.481
1.476
1.505
1.549
1.574
1.579
1.579
1.598
1.618
1.613
1.608
1.623
1.628
1.623
1.628
1.647
1.676
1.676
1.672
1.701
1.725
1.725
1.716
1.706
1.711
1.691
1.647
1.642
1.657
1.662
1.657
1.647
1.652
1.657
1.632
1.637
1.672
1.696
1.701
1.696
1.696
1.696
1.667
1.632
1.623
1.618
1.593
1.584
1.593
1.628
1.652
1.657
1.686
1.725
1.73
1.716
1.696
1.691
1.681
1.647
1.632
1.647
1.662
1.672
1.686
1.716
1.74
1.735
1.716
1.716
1.72
1.706
1.691
1.696
1.73
1.75
1.74
1.76
1.799
1.818
1.823
1.818
1.823
1.823
1.789
1.769
1.779
1.779
1.764
1.745
1.75
1.764
1.755
1.74
1.76
1.779
1.779
1.769
1.774
1.799
1.804
1.774
1.76
1.764
1.76
1.755
1.75
1.764
1.779
1.76
1.755
1.769
1.769
1.75
1.725
1.725
1.74
1.725
1.711
1.72
1.735
1.73
1.716
1.711
1.72
1.706
1.672
1.667
1.676
1.667
1.647
1.632
1.637
1.642
1.623
1.613
1.632
1.632
1.623
1.608
1.613
1.632
1.623
1.618
1.642
1.676
1.681
1.672
1.662
1.667
1.647
1.603
1.579
1.588
1.588
1.584
1.584
1.603
1.628
1.628
1.628
1.657
1.672
1.672
1.667
1.672
1.676
1.652
1.623
1.628
1.632
1.623
1.603
1.593
1.613
1.623
1.608
1.623
1.652
1.667
1.657
1.652
1.667
1.676
1.647
1.628
1.632
1.618
1.588
1.564
1.564
1.579
1.569
1.549
1.554
1.569
1.569
1.554
1.535
1.535
1.544
1.535
1.554
1.588
1.618
1.642
1.667
1.716
1.755
1.75
1.745
1.755
1.76
1.74
1.711
1.691
1.686
1.647
1.613
1.623
1.642
1.652
1.657
1.676
1.706
1.706
1.676
1.676
1.691
1.691
1.686
1.681
1.701
1.716
1.701
1.691
1.711
1.72
1.716
1.716
1.73
1.75
1.74
1.716
1.72
1.72
1.696
1.662
1.642
1.652
1.657
1.647
1.667
1.696
1.716
1.716
1.716
1.72
1.716
1.672
1.657
1.681
1.701
1.701
1.701
1.72
1.755
1.755
1.74
1.75
1.755
1.73
1.696
1.681
1.691
1.696
1.676
1.686
1.701
1.691
1.667
1.647
1.642
1.642
1.618
1.618
1.662
1.706
1.725
1.745
1.76
1.779
1.76
1.725
1.716
1.716
1.696
1.667
1.657
1.672
1.667
1.628
1.613
1.623
1.637
1.652
1.667
1.701
1.725
1.706
1.691
1.696
1.686
1.657
1.632
1.628
1.642
1.632
1.628
1.652
1.686
1.686
1.667
1.657
1.667
1.662
1.637
1.637
1.657
1.652
1.632
1.608
1.613
1.623
1.603
1.608
1.652
1.716
1.774
1.828
1.891
1.955
1.979
1.97
1.965
1.945
1.887
1.804
1.725
1.676
1.623
1.559
1.535
1.525
1.51
1.486
1.471
1.486
1.496
1.471
1.466
1.491
1.515
1.535
1.549
1.579
1.623
1.637
1.637
1.667
1.706
1.711
1.701
1.701
1.711
1.706
1.676
1.676
1.701
1.711
1.711
1.711
1.725
1.735
1.706
1.667
1.637
1.593
1.564
1.574
1.623
1.691
1.73
1.755
1.804
1.838
1.838
1.818
1.799
1.789
1.76
1.711
1.706
1.73
1.745
1.75
1.745
1.745
1.745
1.711
1.691
1.711
1.72
1.72
1.716
1.725
1.745
1.735
1.711
1.725
1.745
1.745
1.735
1.735
1.755
1.76
1.735
1.735
1.76
1.76
1.745
1.73
1.735
1.73
1.706
1.696
1.72
1.735
1.735
1.74
1.764
1.804
1.813
1.804
1.813
1.838
1.848
1.848
1.852
1.872
1.877
1.857
1.862
1.877
1.877
1.857
1.838
1.843
1.848
1.823
1.813
1.838
1.857
1.857
1.843
1.843
1.848
1.823
1.794
1.799
1.818
1.813
1.799
1.794
1.813
1.818
1.799
1.808
1.823
1.823
1.804
1.794
1.799
1.789
1.74
1.706
1.706
1.701
1.686
1.676
1.686
1.711
1.711
1.686
1.691
1.696
1.676
1.657
1.647
1.667
1.676
1.662
1.672
1.701
1.716
1.711
1.711
1.716
1.72
1.691
1.667
1.672
1.676
1.667
1.662
1.672
1.686
1.667
1.642
1.642
1.657
1.647
1.637
1.642
1.676
1.696
1.681
1.681
1.691
1.686
1.662
1.637
1.642
1.662
1.657
1.672
1.716
1.75
1.745
1.73
1.72
1.716
1.681
1.637
1.623
1.618
1.598
1.584
1.588
1.618
1.623
1.598
1.598
1.623
1.632
1.628
1.623
1.637
1.657
1.647
1.652
1.681
1.696
1.691
1.681
1.691
1.706
1.696
1.676
1.696
1.725
1.735
1.725
1.716
1.72
1.716
1.676
1.672
1.691
1.691
1.676
1.672
1.681
1.691
1.662
1.652
1.672
1.681
1.672
1.657
1.657
1.672
1.657
1.628
1.628
1.628
1.598
1.584
1.593
1.637
1.662
1.647
1.662
1.696
1.711
1.696
1.672
1.662
1.662
1.632
1.613
1.632
1.662
1.676
1.691
1.72
1.75
1.75
1.73
1.73
1.73
1.706
1.686
1.686
1.716
1.73
1.716
1.716
1.735
1.745
1.73
1.711
1.706
1.691
1.652
1.632
1.652
1.672
1.667
1.667
1.681
1.716
1.711
1.696
1.711
1.725
1.706
1.667
1.632
1.637
1.637
1.628
1.657
1.711
1.75
1.769
1.794
1.823
1.843
1.818
1.784
1.774
1.76
1.735
1.716
1.711
1.72
1.701
1.672
1.672
1.691
1.696
1.691
1.691
1.706
1.711
1.691
1.701
1.716
1.711
1.681
1.662
1.662
1.672
1.647
1.632
1.652
1.672
1.686
1.686
1.696
1.716
1.706
1.681
1.691
1.701
1.686
1.667
1.657
1.662
1.652
1.618
1.613
1.628
1.642
1.657
1.681
1.725
1.769
1.779
1.794
1.833
1.867
1.887
1.891
1.906
1.921
1.901
1.867
1.848
1.818
1.76
1.686
1.618
1.579
1.549
1.51
1.505
1.525
1.525
1.515
1.505
1.51
1.525
1.51
1.505
1.53
1.544
1.544
1.554
1.584
1.613
1.613
1.618
1.667
1.72
1.74
1.75
1.76
1.784
1.784
1.75
1.745
1.755
1.745
1.725
1.716
1.725
1.735
1.716
1.696
1.716
1.73
1.725
1.716
1.725
1.745
1.75
1.73
1.716
1.672
1.618
1.584
1.588
1.632
1.672
1.691
1.74
1.823
1.877
1.891
1.877
1.852
1.804
1.72
1.647
1.623
1.642
1.681
1.725
1.799
1.877
1.906
1.896
1.901
1.891
1.838
1.76
1.691
1.676
1.672
1.667
1.706
1.779
1.838
1.872
1.882
1.877
1.857
1.804
1.755
1.735
1.716
1.706
1.72
1.769
1.828
1.852
1.857
1.887
1.906
1.887
1.852
1.818
1.808
1.784
1.745
1.74
1.764
1.779
1.784
1.799
1.833
1.862
1.848
1.828
1.823
1.818
1.808
1.804
1.818
1.843
1.852
1.843
1.848
1.852
1.838
1.808
1.789
1.794
1.804
1.784
1.779
1.789
1.784
1.764
1.74
1.73
1.73
1.696
1.672
1.691
1.711
1.711
1.706
1.716
1.745
1.745
1.72
1.716
1.73
1.735
1.735
1.725
1.711
1.686
1.642
1.637
1.672
1.706
1.711
1.706
1.711
1.73
1.716
1.701
1.696
1.681
1.637
1.593
1.584
1.593
1.593
1.579
1.598
1.628
1.637
1.628
1.632
1.647
1.647
1.613
1.608
1.623
1.628
1.623
1.618
1.632
1.652
1.637
1.637
1.662
1.676
1.667
1.662
1.672
1.691
1.676
1.647
1.642
1.647
1.628
1.608
1.603
1.637
1.667
1.662
1.676
1.706
1.716
1.711
1.706
1.711
1.72
1.691
1.672
1.691
1.716
1.725
1.716
1.72
1.73
1.716
1.681
1.681
1.691
1.691
1.681
1.681
1.701
1.706
1.696
1.706
1.73
1.745
1.74
1.725
1.72
1.706
1.657
1.608
1.593
1.579
1.564
1.554
1.574
1.623
1.647
1.662
1.701
1.75
1.769
1.774
1.769
1.784
1.789
1.76
1.735
1.735
1.716
1.691
1.672
1.672
1.686
1.676
1.681
1.72
1.75
1.755
1.745
1.74
1.745
1.72
1.686
1.691
1.716
1.716
1.711
1.706
1.72
1.72
1.696
1.691
1.706
1.706
1.701
1.706
1.725
1.75
1.73
1.706
1.711
1.701
1.672
1.642
1.647
1.667
1.657
1.628
1.628
1.642
1.647
1.642
1.642
1.672
1.691
1.686
1.706
1.735
1.75
1.74
1.73
1.73
1.73
1.701
1.681
1.696
1.711
1.701
1.686
1.681
1.696
1.686
1.676
1.701
1.72
1.701
1.681
1.672
1.686
1.686
1.657
1.652
1.667
1.667
1.647
1.623
1.613
1.608
1.584
1.574
1.598
1.628
1.632
1.632
1.662
1.701
1.696
1.667
1.667
1.672
1.652
1.618
1.593
1.593
1.579
1.544
1.54
1.559
1.569
1.574
1.593
1.637
1.681
1.681
1.686
1.735
1.789
1.808
1.813
1.818
1.833
1.833
1.823
1.843
1.872
1.862
1.833
1.813
1.813
1.784
1.696
1.598
1.535
1.486
1.461
1.442
1.437
1.452
1.466
1.491
1.53
1.549
1.54
1.52
1.51
1.515
1.51
1.5
1.515
1.544
1.564
1.598
1.637
1.691
1.72
1.706
1.701
1.716
1.725
1.72
1.701
1.676
1.662
1.632
1.608
1.618
1.632
1.642
1.647
1.662
1.681
1.667
1.637
1.637
1.647
1.642
1.642
1.662
1.701
1.72
1.701
1.691
1.701
1.691
1.662
1.637
1.632
1.647
1.642
1.647
1.672
1.672
1.652
1.637
1.632
1.642
1.642
1.652
1.706
1.769
1.808
1.813
1.808
1.804
1.784
1.73
1.691
1.676
1.667
1.652
1.662
1.696
1.74
1.755
1.769
1.799
1.813
1.794
1.769
1.764
1.779
1.769
1.745
1.735
1.725
1.706
1.696
1.711
1.75
1.774
1.764
1.784
1.828
1.852
1.857
1.852
1.848
1.838
1.804
1.784
1.784
1.784
1.769
1.76
1.779
1.828
1.848
1.852
1.872
1.901
1.911
1.901
1.887
1.891
1.887
1.852
1.833
1.833
1.828
1.808
1.794
1.789
1.784
1.745
1.706
1.696
1.691
1.691
1.696
1.711
1.735
1.74
1.735
1.76
1.784
1.774
1.745
1.711
1.681
1.632
1.559
1.525
1.52
1.515
1.5
1.5
1.53
1.574
1.603
1.628
1.662
1.676
1.667
1.657
1.662
1.691
1.686
1.667
1.667
1.686
1.681
1.667
1.657
1.667
1.667
1.642
1.647
1.681
1.706
1.73
1.745
1.755
1.75
1.716
1.681
1.667
1.652
1.623
1.593
1.593
1.608
1.608
1.593
1.613
1.652
1.676
1.686
1.691
1.711
1.72
1.706
1.701
1.706
1.696
1.672
1.652
1.652
1.662
1.642
1.618
1.628
1.642
1.642
1.637
1.642
1.662
1.667
1.662
1.681
1.706
1.706
1.696
1.686
1.696
1.696
1.676
1.667
1.681
1.681
1.667
1.652
1.667
1.686
1.667
1.652
1.672
1.696
1.706
1.711
1.716
1.725
1.725
1.706
1.711
1.725
1.73
1.725
1.711
1.716
1.716
1.686
1.676
1.691
1.691
1.676
1.657
1.647
1.647
1.628
1.623
1.652
1.686
1.691
1.696
1.711
1.735
1.72
1.681
1.667
1.676
1.681
1.681
1.681
1.701
1.716
1.706
1.706
1.725
1.735
1.725
1.716
1.735
1.76
1.75
1.745
1.764
1.784
1.779
1.769
1.764
1.769
1.76
1.735
1.725
1.725
1.711
1.691
1.696
1.725
1.755
1.76
1.774
1.808
1.813
1.789
1.76
1.745
1.74
1.706
1.681
1.696
1.716
1.716
1.716
1.73
1.764
1.769
1.745
1.74
1.755
1.75
1.735
1.725
1.725
1.716
1.681
1.672
1.672
1.662
1.642
1.632
1.632
1.642
1.632
1.637
1.681
1.725
1.74
1.725
1.711
1.716
1.711
1.681
1.672
1.672
1.672
1.667
1.672
1.701
1.72
1.696
1.686
1.701
1.701
1.691
1.686
1.706
1.73
1.72
1.716
1.74
1.764
1.764
1.755
1.76
1.789
1.789
1.774
1.799
1.833
1.852
1.867
1.901
1.95
1.97
1.931
1.882
1.833
1.764
1.667
1.569
1.5
1.457
1.408
1.369
1.383
1.403
1.408
1.403
1.413
1.447
1.457
1.452
1.486
1.549
1.598
1.632
1.662
1.706
1.725
1.706
1.701
1.716
1.72
1.706
1.686
1.686
1.696
1.681
1.672
1.696
1.72
1.72
1.711
1.716
1.735
1.73
1.701
1.701
1.711
1.711
1.686
1.657
1.642
1.623
1.588
1.574
1.584
1.584
1.574
1.588
1.652
1.72
1.74
1.75
1.784
1.804
1.789
1.755
1.73
1.72
1.696
1.672
1.691
1.745
1.779
1.799
1.813
1.828
1.833
1.789
1.764
1.769
1.764
1.755
1.745
1.755
1.769
1.755
1.74
1.76
1.774
1.755
1.72
1.711
1.745
1.76
1.745
1.76
1.789
1.808
1.823
1.838
1.872
1.891
1.872
1.867
1.882
1.872
1.833
1.804
1.794
1.784
1.75
1.711
1.711
1.72
1.716
1.716
1.735
1.769
1.789
1.789
1.828
1.887
1.921
1.926
1.926
1.926
1.906
1.848
1.808
1.794
1.784
1.769
1.769
1.804
1.848
1.852
1.828
1.799
1.755
1.696
1.647
1.628
1.642
1.642
1.642
1.681
1.74
1.774
1.784
1.774
1.76
1.716
1.623
1.564
1.554
1.554
1.554
1.559
1.588
1.637
1.652
1.662
1.691
1.711
1.691
1.652
1.623
1.628
1.628
1.613
1.637
1.662
1.676
1.667
1.667
1.676
1.672
1.632
1.613
1.632
1.647
1.642
1.632
1.642
1.657
1.642
1.623
1.628
1.632
1.603
1.564
1.549
1.569
1.579
1.574
1.598
1.642
1.672
1.691
1.716
1.745
1.745
1.696
1.657
1.647
1.632
1.598
1.569
1.559
1.569
1.569
1.569
1.598
1.623
1.637
1.637
1.657
1.681
1.676
1.637
1.632
1.647
1.647
1.628
1.598
1.584
1.579
1.549
1.54
1.559
1.584
1.603
1.632
1.681
1.73
1.735
1.716
1.706
1.676
1.632
1.593
1.579
1.588
1.598
1.603
1.642
1.696
1.72
1.716
1.696
1.691
1.681
1.652
1.657
1.696
1.72
1.72
1.716
1.711
1.711
1.667
1.613
1.584
1.569
1.559
1.559
1.579
1.628
1.652
1.652
1.672
1.696
1.701
1.681
1.662
1.657
1.647
1.603
1.579
1.584
1.584
1.579
1.574
1.593
1.632
1.642
1.642
1.672
1.701
1.701
1.691
1.691
1.711
1.711
1.696
1.701
1.73
1.73
1.716
1.691
1.681
1.657
1.618
1.613
1.637
1.662
1.667
1.672
1.701
1.735
1.735
1.72
1.725
1.73
1.72
1.711
1.716
1.74
1.73
1.706
1.701
1.711
1.696
1.672
1.652
1.652
1.647
1.613
1.603
1.618
1.618
1.593
1.564
1.564
1.593
1.603
1.603
1.637
1.676
1.701
1.716
1.72
1.72
1.696
1.642
1.618
1.608
1.584
1.554
1.54
1.54
1.54
1.51
1.515
1.554
1.593
1.623
1.667
1.73
1.789
1.799
1.779
1.784
1.789
1.774
1.774
1.799
1.852
1.882
1.896
1.935
1.975
1.975
1.931
1.872
1.808
1.735
1.628
1.544
1.5
1.457
1.417
1.393
1.398
1.417
1.408
1.403
1.422
1.452
1.461
1.466
1.486
1.535
1.559
1.569
1.603
1.652
1.667
1.662
1.647
1.652
1.637
1.598
1.598
1.642
1.676
1.696
1.706
1.73
1.755
1.73
1.681
1.647
1.632
1.613
1.603
1.613
1.647
1.681
1.681
1.706
1.73
1.73
1.701
1.676
1.676
1.681
1.662
1.667
1.701
1.72
1.72
1.711
1.72
1.74
1.73
1.711
1.72
1.735
1.73
1.72
1.72
1.745
1.745
1.72
1.706
1.691
1.662
1.628
1.608
1.618
1.642
1.642
1.667
1.716
1.745
1.74
1.725
1.72
1.716
1.681
1.652
1.667
1.706
1.725
1.745
1.774
1.813
1.828
1.813
1.818
1.838
1.838
1.823
1.808
1.823
1.833
1.808
1.804
1.823
1.843
1.848
1.848
1.857
1.872
1.843
1.808
1.804
1.808
1.799
1.789
1.799
1.833
1.843
1.828
1.828
1.833
1.823
1.804
1.784
1.789
1.794
1.764
1.75
1.774
1.794
1.794
1.784
1.784
1.794
1.774
1.75
1.745
1.745
1.72
1.686
1.672
1.681
1.672
1.637
1.632
1.642
1.637
1.618
1.603
1.608
1.613
1.593
1.598
1.623
1.637
1.637
1.642
1.657
1.672
1.652
1.618
1.608
1.598
1.569
1.544
1.53
1.54
1.54
1.525
1.559
1.618
1.657
1.676
1.691
1.711
1.716
1.681
1.652
1.642
1.628
1.603
1.584
1.588
1.613
1.613
1.603
1.618
1.632
1.618
1.593
1.579
1.588
1.584
1.569
1.584
1.618
1.637
1.642
1.637
1.652
1.662
1.623
1.588
1.574
1.554
1.535
1.53
1.549
1.588
1.598
1.608
1.642
1.676
1.681
1.672
1.652
1.647
1.632
1.608
1.613
1.637
1.642
1.637
1.632
1.642
1.652
1.637
1.628
1.647
1.657
1.657
1.657
1.676
1.701
1.691
1.667
1.672
1.672
1.652
1.628
1.628
1.637
1.632
1.608
1.613
1.642
1.662
1.662
1.667
1.681
1.691
1.662
1.642
1.647
1.652
1.647
1.642
1.652
1.672
1.662
1.632
1.637
1.642
1.628
1.613
1.618
1.647
1.667
1.676
1.701
1.72
1.706
1.681
1.657
1.647
1.637
1.598
1.588
1.623
1.657
1.672
1.676
1.696
1.716
1.691
1.662
1.657
1.662
1.652
1.642
1.647
1.681
1.701
1.691
1.706
1.725
1.725
1.701
1.676
1.672
1.662
1.618
1.593
1.608
1.623
1.628
1.632
1.657
1.691
1.686
1.672
1.681
1.691
1.681
1.662
1.652
1.657
1.647
1.628
1.628
1.647
1.642
1.632
1.613
1.603
1.603
1.574
1.564
1.588
1.603
1.608
1.613
1.632
1.657
1.632
1.598
1.593
1.598
1.584
1.569
1.559
1.574
1.569
1.54
1.544
1.574
1.588
1.579
1.574
1.593
1.628
1.632
1.652
1.696
1.73
1.755
1.779
1.818
1.867
1.891
1.901
1.931
1.955
1.94
1.911
1.877
1.843
1.779
1.676
1.588
1.53
1.476
1.422
1.378
1.369
1.369
1.349
1.354
1.393
1.413
1.417
1.422
1.447
1.481
1.491
1.496
1.535
1.569
1.584
1.584
1.593
1.628
1.652
1.647
1.662
1.696
1.711
1.711
1.706
1.711
1.706
1.662
1.632
1.637
1.637
1.632
1.637
1.662
1.691
1.686
1.662
1.667
1.681
1.681
1.667
1.662
1.676
1.676
1.652
1.657
1.676
1.676
1.667
1.662
1.676
1.691
1.691
1.701
1.735
1.75
1.74
1.725
1.725
1.74
1.716
1.691
1.701
1.716
1.72
1.716
1.711
1.735
1.74
1.716
1.711
1.72
1.716
1.701
1.701
1.72
1.745
1.73
1.72
1.74
1.755
1.75
1.745
1.76
1.779
1.769
1.75
1.745
1.745
1.72
1.701
1.711
1.75
1.779
1.779
1.804
1.848
1.862
1.857
1.843
1.843
1.833
1.794
1.764
1.784
1.813
1.828
1.833
1.843
1.857
1.833
1.799
1.799
1.808
1.794
1.779
1.769
1.789
1.794
1.769
1.769
1.789
1.784
1.764
1.755
1.755
1.76
1.73
1.725
1.745
1.755
1.735
1.706
1.691
1.691
1.667
1.637
1.642
1.647
1.637
1.623
1.623
1.647
1.652
1.628
1.623
1.637
1.637
1.623
1.618
1.618
1.608
1.564
1.54
1.554
1.564
1.564
1.564
1.588
1.628
1.632
1.618
1.613
1.613
1.598
1.584
1.584
1.608
1.623
1.608
1.618
1.647
1.667
1.662
1.652
1.642
1.642
1.613
1.598
1.623
1.628
1.608
1.579
1.574
1.588
1.584
1.564
1.569
1.593
1.603
1.608
1.613
1.632
1.632
1.608
1.603
1.618
1.613
1.608
1.608
1.628
1.647
1.628
1.613
1.628
1.642
1.632
1.613
1.613
1.623
1.608
1.588
1.608
1.628
1.623
1.608
1.608
1.632
1.647
1.632
1.632
1.652
1.657
1.637
1.628
1.628
1.637
1.603
1.579
1.593
1.613
1.608
1.603
1.618
1.647
1.642
1.613
1.613
1.623
1.618
1.603
1.603
1.637
1.657
1.647
1.647
1.657
1.647
1.628
1.613
1.623
1.637
1.623
1.623
1.667
1.711
1.72
1.716
1.716
1.725
1.711
1.676
1.672
1.672
1.657
1.632
1.623
1.628
1.628
1.598
1.598
1.628
1.642
1.642
1.647
1.662
1.672
1.652
1.642
1.652
1.662
1.647
1.623
1.598
1.593
1.588
1.584
1.618
1.652
1.667
1.681
1.711
1.76
1.779
1.75
1.725
1.72
1.711
1.681
1.662
1.662
1.657
1.613
1.569
1.554
1.554
1.549
1.554
1.588
1.662
1.716
1.755
1.808
1.843
1.823
1.774
1.72
1.676
1.623
1.564
1.544
1.574
1.598
1.608
1.623
1.642
1.662
1.637
1.623
1.637
1.662
1.662
1.652
1.652
1.657
1.637
1.603
1.608
1.623
1.632
1.637
1.642
1.672
1.681
1.647
1.618
1.603
1.579
1.554
1.549
1.588
1.637
1.652
1.681
1.735
1.779
1.789
1.779
1.789
1.808
1.799
1.774
1.799
1.838
1.862
1.877
1.891
1.911
1.906
1.848
1.794
1.74
1.662
1.564
1.476
1.427
1.408
1.373
1.369
1.403
1.447
1.471
1.481
1.496
1.515
1.515
1.51
1.544
1.598
1.642
1.676
1.696
1.686
1.628
1.53
1.471
1.466
1.471
1.486
1.544
1.642
1.755
1.823
1.867
1.901
1.887
1.804
1.696
1.608
1.574
1.559
1.569
1.637
1.711
1.755
1.779
1.799
1.818
1.799
1.73
1.681
1.667
1.657
1.652
1.657
1.691
1.725
1.725
1.72
1.735
1.735
1.716
1.701
1.706
1.725
1.725
1.711
1.725
1.745
1.74
1.725
1.72
1.74
1.755
1.735
1.74
1.755
1.755
1.735
1.725
1.725
1.72
1.681
1.667
1.696
1.72
1.716
1.706
1.73
1.769
1.784
1.779
1.799
1.818
1.823
1.823
1.828
1.848
1.848
1.818
1.813
1.828
1.833
1.828
1.813
1.818
1.823
1.794
1.769
1.789
1.823
1.838
1.838
1.848
1.862
1.828
1.75
1.691
1.642
1.593
1.588
1.632
1.735
1.843
1.911
1.979
2.043
2.058
2.009
1.931
1.857
1.794
1.72
1.696
1.716
1.73
1.73
1.72
1.716
1.711
1.681
1.647
1.652
1.672
1.676
1.686
1.696
1.716
1.711
1.672
1.652
1.657
1.642
1.618
1.593
1.598
1.608
1.593
1.588
1.618
1.642
1.652
1.667
1.691
1.706
1.657
1.588
1.554
1.554
1.544
1.525
1.52
1.559
1.608
1.642
1.691
1.735
1.745
1.72
1.681
1.632
1.569
1.476
1.417
1.408
1.413
1.427
1.466
1.544
1.642
1.706
1.735
1.774
1.794
1.784
1.755
1.711
1.676
1.628
1.569
1.549
1.549
1.544
1.54
1.554
1.603
1.657
1.676
1.696
1.725
1.74
1.72
1.696
1.681
1.672
1.623
1.564
1.544
1.544
1.52
1.491
1.486
1.51
1.525
1.525
1.554
1.623
1.686
1.72
1.735
1.75
1.755
1.716
1.667
1.623
1.584
1.54
1.515
1.535
1.588
1.628
1.652
1.691
1.72
1.711
1.676
1.642
1.628
1.628
1.623
1.667
1.725
1.735
1.706
1.657
1.623
1.593
1.54
1.5
1.505
1.53
1.549
1.574
1.618
1.676
1.696
1.701
1.716
1.72
1.686
1.628
1.559
1.515
1.471
1.408
1.393
1.437
1.515
1.618
1.73
1.848
1.931
1.935
1.896
1.852
1.784
1.706
1.637
1.603
1.603
1.593
1.584
1.613
1.657
1.676
1.681
1.686
1.706
1.711
1.691
1.696
1.725
1.72
1.706
1.696
1.696
1.701
1.676
1.667
1.701
1.735
1.75
1.75
1.755
1.76
1.73
1.676
1.652
1.632
1.608
1.579
1.574
1.598
1.632
1.642
1.667
1.706
1.725
1.72
1.701
1.696
1.681
1.637
1.608
1.608
1.618
1.628
1.642
1.672
1.696
1.667
1.618
1.623
1.642
1.637
1.618
1.603
1.613
1.618
1.603
1.608
1.623
1.608
1.569
1.544
1.554
1.593
1.618
1.652
1.716
1.769
1.799
1.813
1.843
1.891
1.911
1.906
1.931
1.955
1.94
1.891
1.833
1.784
1.716
1.608
1.53
1.486
1.442
1.408
1.388
1.393
1.393
1.354
1.32
1.32
1.329
1.349
1.378
1.437
1.515
1.574
1.603
1.652
1.696
1.701
1.686
1.672
1.672
1.672
1.647
1.652
1.686
1.706
1.701
1.691
1.691
1.696
1.672
1.662
1.681
1.691
1.681
1.672
1.676
1.691
1.681
1.662
1.676
1.706
1.725
1.735
1.745
1.76
1.764
1.73
1.716
1.716
1.706
1.686
1.676
1.691
1.711
1.701
1.691
1.711
1.725
1.72
1.711
1.706
1.725
1.725
1.711
1.72
1.74
1.745
1.74
1.745
1.764
1.774
1.755
1.75
1.769
1.769
1.755
1.745
1.75
1.764
1.745
1.735
1.75
1.76
1.755
1.755
1.774
1.804
1.804
1.789
1.794
1.808
1.808
1.804
1.804
1.828
1.838
1.813
1.799
1.813
1.818
1.804
1.789
1.789
1.794
1.769
1.76
1.789
1.823
1.843
1.857
1.877
1.916
1.916
1.896
1.891
1.901
1.877
1.848
1.823
1.823
1.818
1.784
1.784
1.799
1.794
1.769
1.745
1.74
1.75
1.73
1.716
1.73
1.74
1.735
1.72
1.716
1.73
1.72
1.691
1.686
1.696
1.691
1.667
1.642
1.642
1.632
1.598
1.588
1.613
1.623
1.628
1.628
1.647
1.667
1.652
1.642
1.662
1.681
1.676
1.667
1.667
1.681
1.667
1.632
1.628
1.632
1.623
1.603
1.603
1.623
1.632
1.608
1.598
1.618
1.618
1.608
1.608
1.628
1.652
1.642
1.637
1.652
1.667
1.662
1.652
1.652
1.672
1.667
1.642
1.647
1.667
1.667
1.652
1.647
1.657
1.662
1.637
1.628
1.652
1.657
1.652
1.637
1.647
1.657
1.642
1.623
1.632
1.642
1.628
1.613
1.608
1.628
1.637
1.623
1.632
1.642
1.637
1.628
1.632
1.657
1.667
1.637
1.623
1.637
1.642
1.628
1.608
1.613
1.628
1.618
1.623
1.657
1.696
1.706
1.696
1.701
1.716
1.701
1.667
1.672
1.686
1.691
1.681
1.681
1.696
1.701
1.676
1.672
1.691
1.696
1.691
1.681
1.691
1.701
1.676
1.647
1.657
1.672
1.672
1.667
1.686
1.716
1.725
1.711
1.72
1.74
1.74
1.72
1.711
1.716
1.72
1.686
1.676
1.691
1.686
1.672
1.657
1.662
1.667
1.637
1.613
1.623
1.642
1.642
1.642
1.657
1.686
1.686
1.667
1.676
1.691
1.686
1.662
1.642
1.647
1.642
1.613
1.608
1.628
1.637
1.632
1.628
1.642
1.662
1.647
1.632
1.652
1.667
1.657
1.642
1.637
1.657
1.647
1.628
1.632
1.657
1.667
1.662
1.662
1.672
1.672
1.647
1.642
1.672
1.691
1.706
1.725
1.769
1.828
1.857
1.877
1.911
1.931
1.916
1.877
1.838
1.808
1.74
1.652
1.598
1.559
1.51
1.452
1.408
1.403
1.403
1.383
1.388
1.422
1.452
1.471
1.491
1.525
1.574
1.584
1.588
1.613
1.637
1.642
1.637
1.647
1.667
1.667
1.642
1.652
1.676
1.681
1.672
1.667
1.686
1.701
1.686
1.681
1.701
1.706
1.691
1.686
1.696
1.716
1.696
1.676
1.686
1.701
1.691
1.676
1.681
1.706
1.711
1.696
1.706
1.725
1.72
1.706
1.696
1.696
1.691
1.657
1.647
1.667
1.686
1.686
1.676
1.676
1.691
1.691
1.696
1.725
1.764
1.784
1.794
1.804
1.823
1.808
1.769
1.755
1.76
1.745
1.725
1.72
1.74
1.755
1.74
1.735
1.76
1.769
1.764
1.764
1.779
1.804
1.794
1.784
1.799
1.808
1.804
1.799
1.804
1.828
1.823
1.799
1.804
1.823
1.823
1.808
1.804
1.813
1.823
1.804
1.804
1.823
1.828
1.818
1.828
1.852
1.887
1.872
1.843
1.838
1.833
1.813
1.789
1.779
1.794
1.789
1.774
1.794
1.818
1.818
1.799
1.774
1.76
1.745
1.701
1.686
1.706
1.716
1.706
1.696
1.701
1.711
1.686
1.662
1.667
1.672
1.657
1.642
1.642
1.657
1.662
1.642
1.652
1.676
1.676
1.662
1.647
1.657
1.652
1.618
1.608
1.623
1.623
1.613
1.603
1.608
1.618
1.598
1.569
1.564
1.554
1.544
1.544
1.564
1.593
1.603
1.593
1.618
1.662
1.676
1.672
1.662
1.676
1.686
1.667
1.657
1.662
1.647
1.618
1.598
1.598
1.618
1.608
1.608
1.642
1.672
1.676
1.672
1.667
1.672
1.657
1.613
1.608
1.618
1.628
1.623
1.628
1.647
1.652
1.632
1.628
1.647
1.657
1.647
1.637
1.642
1.657
1.637
1.623
1.637
1.652
1.642
1.632
1.637
1.662
1.662
1.642
1.647
1.662
1.657
1.647
1.647
1.657
1.657
1.623
1.603
1.608
1.603
1.593
1.593
1.613
1.642
1.642
1.647
1.676
1.691
1.681
1.657
1.642
1.642
1.637
1.628
1.642
1.676
1.686
1.686
1.686
1.701
1.701
1.662
1.647
1.657
1.667
1.662
1.667
1.691
1.716
1.701
1.676
1.676
1.686
1.672
1.652
1.652
1.681
1.681
1.672
1.681
1.696
1.681
1.652
1.628
1.613
1.593
1.554
1.544
1.579
1.618
1.647
1.686
1.73
1.774
1.774
1.76
1.769
1.769
1.74
1.711
1.691
1.696
1.686
1.657
1.662
1.681
1.681
1.667
1.647
1.647
1.647
1.618
1.603
1.608
1.618
1.618
1.623
1.652
1.691
1.696
1.691
1.701
1.706
1.681
1.652
1.632
1.628
1.613
1.588
1.593
1.623
1.628
1.628
1.628
1.642
1.647
1.618
1.603
1.618
1.637
1.642
1.657
1.691
1.74
1.764
1.789
1.843
1.896
1.921
1.931
1.935
1.955
1.935
1.882
1.843
1.804
1.735
1.657
1.588
1.549
1.515
1.461
1.432
1.442
1.442
1.432
1.427
1.442
1.471
1.471
1.471
1.505
1.54
1.559
1.574
1.598
1.637
1.647
1.632
1.642
1.667
1.672
1.657
1.652
1.667
1.676
1.652
1.652
1.676
1.691
1.691
1.681
1.686
1.686
1.652
1.618
1.613
1.618
1.608
1.603
1.613
1.637
1.647
1.642
1.676
1.716
1.73
1.735
1.735
1.755
1.76
1.735
1.72
1.735
1.725
1.706
1.691
1.701
1.725
1.716
1.701
1.711
1.716
1.711
1.706
1.716
1.745
1.75
1.725
1.73
1.755
1.764
1.755
1.74
1.745
1.74
1.716
1.706
1.725
1.735
1.735
1.73
1.75
1.769
1.755
1.735
1.74
1.74
1.716
1.686
1.681
1.706
1.716
1.72
1.76
1.813
1.843
1.857
1.872
1.896
1.906
1.877
1.857
1.862
1.862
1.848
1.833
1.843
1.867
1.857
1.838
1.848
1.857
1.843
1.823
1.813
1.828
1.828
1.804
1.808
1.833
1.838
1.828
1.808
1.808
1.804
1.769
1.75
1.764
1.764
1.745
1.72
1.716
1.711
1.681
1.647
1.647
1.652
1.652
1.647
1.657
1.681
1.686
1.662
1.667
1.676
1.662
1.632
1.613
1.618
1.632
1.618
1.623
1.652
1.667
1.662
1.647
1.647
1.657
1.628
1.593
1.598
1.613
1.613
1.613
1.618
1.637
1.642
1.618
1.623
1.637
1.637
1.623
1.618
1.632
1.642
1.623
1.613
1.628
1.632
1.623
1.613
1.623
1.637
1.613
1.588
1.593
1.613
1.608
1.588
1.569
1.564
1.544
1.52
1.535
1.574
1.608
1.623
1.642
1.676
1.701
1.681
1.662
1.662
1.647
1.618
1.603
1.623
1.647
1.642
1.623
1.632
1.642
1.628
1.608
1.603
1.623
1.623
1.598
1.598
1.623
1.632
1.623
1.623
1.632
1.637
1.608
1.598
1.618
1.623
1.623
1.618
1.632
1.657
1.657
1.657
1.676
1.701
1.696
1.672
1.652
1.657
1.642
1.618
1.613
1.637
1.637
1.628
1.623
1.632
1.642
1.618
1.608
1.623
1.632
1.623
1.608
1.623
1.647
1.647
1.637
1.657
1.676
1.672
1.662
1.662
1.672
1.667
1.637
1.637
1.647
1.642
1.628
1.618
1.632
1.637
1.613
1.603
1.623
1.647
1.652
1.657
1.667
1.686
1.681
1.667
1.686
1.706
1.701
1.686
1.686
1.706
1.706
1.676
1.672
1.681
1.672
1.657
1.652
1.667
1.681
1.667
1.672
1.696
1.716
1.711
1.691
1.696
1.701
1.676
1.642
1.647
1.647
1.628
1.603
1.598
1.618
1.623
1.608
1.613
1.632
1.637
1.632
1.623
1.637
1.642
1.613
1.603
1.623
1.637
1.637
1.632
1.637
1.652
1.632
1.608
1.613
1.628
1.628
1.613
1.618
1.632
1.632
1.603
1.603
1.618
1.613
1.603
1.593
1.613
1.632
1.628
1.652
1.716
1.774
1.813
1.848
1.887
1.935
1.94
1.921
1.926
1.916
1.872
1.818
1.764
1.72
1.662
1.584
1.535
1.5
1.461
1.422
1.403
1.408
1.422
1.417
1.427
1.461
1.496
1.515
1.535
1.559
1.598
1.608
1.613
1.642
1.662
1.657
1.647
1.652
1.667
1.667
1.637
1.637
1.652
1.652
1.642
1.632
1.647
1.662
1.642
1.637
1.657
1.672
1.667
1.657
1.662
1.676
1.667
1.652
1.667
1.686
1.691
1.691
1.701
1.72
1.716
1.691
1.681
1.691
1.691
1.676
1.667
1.681
1.696
1.686
1.691
1.72
1.74
1.74
1.725
1.73
1.74
1.72
1.691
1.696
1.706
1.701
1.691
1.696
1.725
1.73
1.711
1.72
1.74
1.73
1.706
1.691
1.706
1.725
1.72
1.725
1.76
1.784
1.789
1.789
1.799
1.808
1.784
1.76
1.769
1.794
1.799
1.799
1.808
1.833
1.833
1.804
1.804
1.818
1.823
1.808
1.808
1.823
1.838
1.818
1.804
1.823
1.843
1.843
1.838
1.843
1.852
1.828
1.799
1.799
1.813
1.804
1.789
1.784
1.804
1.804
1.779
1.769
1.769
1.755
1.725
1.701
1.711
1.73
1.716
1.711
1.735
1.745
1.73
1.711
1.701
1.706
1.681
1.647
1.647
1.657
1.647
1.637
1.637
1.657
1.667
1.647
1.652
1.672
1.672
1.657
1.642
1.642
1.647
1.618
1.603
1.623
1.632
1.628
1.618
1.623
1.642
1.628
1.608
1.623
1.642
1.647
1.642
1.642
1.662
1.667
1.642
1.637
1.652
1.647
1.623
1.608
1.618
1.623
1.603
1.588
1.613
1.632
1.642
1.647
1.662
1.681
1.667
1.637
1.642
1.647
1.628
1.603
1.588
1.603
1.618
1.608
1.628
1.662
1.676
1.676
1.681
1.696
1.706
1.672
1.647
1.647
1.652
1.642
1.637
1.652
1.676
1.667
1.642
1.647
1.662
1.662
1.647
1.642
1.652
1.652
1.628
1.637
1.662
1.672
1.662
1.662
1.676
1.691
1.667
1.652
1.662
1.672
1.652
1.632
1.632
1.647
1.642
1.628
1.642
1.657
1.657
1.647
1.652
1.686
1.701
1.681
1.681
1.701
1.701
1.691
1.676
1.686
1.691
1.667
1.662
1.686
1.706
1.706
1.701
1.706
1.72
1.706
1.681
1.686
1.701
1.701
1.701
1.701
1.716
1.716
1.696
1.696
1.706
1.701
1.681
1.662
1.667
1.676
1.647
1.632
1.652
1.667
1.667
1.667
1.681
1.711
1.706
1.686
1.686
1.691
1.676
1.657
1.637
1.647
1.642
1.618
1.618
1.642
1.642
1.628
1.608
1.618
1.632
1.623
1.628
1.662
1.686
1.686
1.686
1.691
1.701
1.676
1.642
1.637
1.647
1.642
1.637
1.642
1.662
1.657
1.632
1.637
1.667
1.681
1.691
1.706
1.75
1.799
1.813
1.838
1.887
1.921
1.931
1.926
1.931
1.935
1.901
1.843
1.804
1.755
1.681
1.603
1.54
1.51
1.476
1.422
1.408
1.417
1.427
1.432
1.447
1.471
1.505
1.5
1.515
1.559
1.603
1.628
1.637
1.652
1.676
1.672
1.647
1.652
1.667
1.662
1.647
1.647
1.667
1.672
1.652
1.662
1.676
1.676
1.667
1.667
1.681
1.701
1.686
1.686
1.711
1.73
1.73
1.72
1.725
1.745
1.735
1.711
1.716
1.725
1.716
1.711
1.711
1.725
1.73
1.711
1.706
1.72
1.716
1.706
1.696
1.711
1.725
1.706
1.696
1.716
1.73
1.72
1.711
1.716
1.74
1.73
1.716
1.725
1.75
1.75
1.745
1.755
1.774
1.769
1.745
1.745
1.774
1.789
1.789
1.789
1.804
1.813
1.794
1.784
1.799
1.799
1.784
1.774
1.789
1.818
1.818
1.808
1.833
1.852
1.848
1.823
1.813
1.823
1.828
1.804
1.813
1.838
1.843
1.838
1.838
1.857
1.872
1.848
1.833
1.848
1.857
1.848
1.833
1.838
1.848
1.828
1.799
1.808
1.818
1.813
1.794
1.784
1.789
1.774
1.735
1.716
1.725
1.72
1.72
1.716
1.73
1.735
1.701
1.676
1.686
1.686
1.667
1.642
1.637
1.657
1.657
1.637
1.652
1.667
1.657
1.637
1.632
1.647
1.652
1.632
1.637
1.662
1.667
1.652
1.632
1.642
1.652
1.623
1.598
1.618
1.628
1.628
1.628
1.632
1.652
1.637
1.618
1.632
1.657
1.657
1.647
1.637
1.647
1.637
1.598
1.593
1.608
1.603
1.593
1.588
1.613
1.637
1.623
1.613
1.628
1.628
1.613
1.598
1.603
1.623
1.623
1.603
1.623
1.647
1.652
1.642
1.632
1.632
1.618
1.584
1.584
1.608
1.623
1.623
1.623
1.647
1.667
1.647
1.628
1.637
1.647
1.642
1.637
1.652
1.681
1.686
1.672
1.681
1.696
1.686
1.662
1.642
1.637
1.628
1.603
1.603
1.623
1.632
1.632
1.637
1.652
1.672
1.652
1.642
1.667
1.686
1.676
1.667
1.676
1.701
1.696
1.672
1.676
1.686
1.676
1.662
1.662
1.681
1.696
1.681
1.691
1.711
1.706
1.681
1.657
1.652
1.652
1.628
1.623
1.647
1.672
1.681
1.681
1.691
1.716
1.701
1.672
1.672
1.676
1.667
1.652
1.657
1.691
1.711
1.696
1.701
1.725
1.73
1.72
1.706
1.706
1.706
1.676
1.652
1.672
1.691
1.696
1.701
1.716
1.74
1.735
1.72
1.725
1.725
1.711
1.686
1.672
1.676
1.672
1.637
1.632
1.647
1.647
1.637
1.628
1.642
1.652
1.632
1.623
1.647
1.662
1.657
1.647
1.652
1.676
1.667
1.642
1.647
1.667
1.667
1.647
1.632
1.637
1.632
1.603
1.603
1.623
1.632
1.628
1.623
1.632
1.642
1.628
1.628
1.657
1.691
1.711
1.725
1.764
1.823
1.848
1.857
1.891
1.926
1.935
1.926
1.916
1.916
1.882
1.799
1.73
1.686
1.628
1.559
1.505
1.486
1.481
1.457
1.442
1.461
1.476
1.471
1.461
1.471
1.496
1.505
1.505
1.54
1.584
1.603
1.613
1.628
1.657
1.672
1.647
1.642
1.657
1.652
1.637
1.628
1.642
1.662
1.647
1.642
1.672
1.701
1.711
1.711
1.72
1.74
1.73
1.711
1.716
1.73
1.72
1.701
1.691
1.706
1.706
1.681
1.681
1.706
1.711
1.706
1.701
1.716
1.73
1.72
1.701
1.711
1.716
1.701
1.686
1.691
1.711
1.711
1.691
1.711
1.735
1.745
1.74
1.735
1.745
1.735
1.701
1.696
1.716
1.725
1.72
1.72
1.74
1.76
1.745
1.735
1.75
1.764
1.755
1.74
1.74
1.76
1.755
1.73
1.74
1.769
1.774
1.774
1.784
1.813
1.833
1.818
1.813
1.828
1.823
1.804
1.789
1.794
1.804
1.784
1.779
1.799
1.818
1.818
1.818
1.823
1.838
1.828
1.808
1.818
1.843
1.843
1.833
1.833
1.848
1.848
1.818
1.808
1.818
1.808
1.794
1.774
1.769
1.769
1.74
1.716
1.72
1.72
1.706
1.686
1.686
1.706
1.701
1.676
1.681
1.691
1.681
1.662
1.652
1.662
1.652
1.613
1.603
1.623
1.632
1.632
1.632
1.647
1.667
1.647
1.637
1.652
1.657
1.637
1.618
1.618
1.642
1.637
1.618
1.623
1.647
1.642
1.628
1.618
1.628
1.632
1.603
1.598
1.618
1.623
1.623
1.628
1.647
1.662
1.647
1.632
1.652
1.667
1.657
1.642
1.632
1.642
1.628
1.603
1.608
1.623
1.623
1.613
1.618
1.642
1.647
1.628
1.623
1.642
1.637
1.623
1.608
1.618
1.632
1.623
1.623
1.647
1.662
1.657
1.637
1.628
1.632
1.613
1.579
1.584
1.613
1.623
1.628
1.637
1.667
1.681
1.657
1.652
1.667
1.672
1.657
1.642
1.647
1.657
1.637
1.618
1.632
1.647
1.647
1.642
1.647
1.672
1.672
1.652
1.662
1.676
1.662
1.642
1.637
1.647
1.652
1.623
1.623
1.637
1.642
1.628
1.613
1.623
1.637
1.618
1.608
1.628
1.652
1.657
1.652
1.662
1.686
1.681
1.662
1.667
1.686
1.681
1.667
1.652
1.662
1.652
1.623
1.623
1.647
1.657
1.662
1.662
1.676
1.691
1.676
1.662
1.672
1.681
1.672
1.667
1.672
1.691
1.681
1.662
1.667
1.681
1.681
1.672
1.676
1.696
1.711
1.696
1.696
1.716
1.711
1.696
1.676
1.686
1.696
1.676
1.667
1.686
1.706
1.706
1.706
1.716
1.735
1.725
1.691
1.686
1.691
1.681
1.667
1.662
1.676
1.686
1.672
1.672
1.691
1.696
1.686
1.667
1.667
1.676
1.652
1.637
1.652
1.672
1.667
1.657
1.657
1.667
1.657
1.632
1.637
1.647
1.637
1.618
1.613
1.632
1.637
1.618
1.618
1.647
1.662
1.657
1.647
1.657
1.681
1.667
1.652
1.667
1.672
1.662
1.647
1.647
1.662
1.652
1.632
1.647
1.681
1.706
1.725
1.76
1.818
1.872
1.891
1.926
1.97
1.989
1.975
1.945
1.921
1.882
1.794
1.701
1.642
1.593
1.525
1.471
1.442
1.437
1.422
1.403
1.422
1.466
1.491
1.5
1.52
1.559
1.588
1.584
1.598
1.628
1.647
1.647
1.652
1.676
1.701
1.691
1.676
1.696
1.706
1.691
1.667
1.662
1.676
1.672
1.652
1.667
1.696
1.711
1.711
1.706
1.72
1.725
1.701
1.691
1.706
1.706
1.691
1.672
1.676
1.691
1.676
1.662
1.681
1.701
1.706
1.706
1.725
1.755
1.76
1.735
1.73
1.74
1.735
1.725
1.72
1.73
1.735
1.716
1.711
1.73
1.74
1.73
1.72
1.725
1.735
1.72
1.706
1.725
1.745
1.74
1.73
1.735
1.755
1.755
1.74
1.75
1.769
1.779
1.774
1.779
1.799
1.804
1.779
1.774
1.794
1.799
1.794
1.789
1.804
1.818
1.804
1.789
1.808
1.828
1.828
1.823
1.828
1.857
1.862
1.848
1.852
1.872
1.867
1.852
1.838
1.848
1.848
1.818
1.813
1.833
1.838
1.828
1.813
1.818
1.833
1.818
1.799
1.808
1.813
1.799
1.774
1.764
1.769
1.755
1.725
1.72
1.73
1.725
1.706
1.691
1.701
1.701
1.676
1.667
1.686
1.691
1.681
1.667
1.672
1.686
1.662
1.642
1.652
1.662
1.652
1.642
1.637
1.652
1.637
1.608
1.603
1.613
1.613
1.608
1.618
1.647
1.662
1.647
1.647
1.667
1.672
1.662
1.647
1.652
1.672
1.652
1.642
1.657
1.676
1.672
1.662
1.657
1.672
1.657
1.632
1.632
1.652
1.647
1.637
1.628
1.637
1.642
1.623
1.618
1.628
1.632
1.618
1.608
1.628
1.647
1.632
1.623
1.642
1.662
1.657
1.647
1.647
1.667
1.662
1.632
1.632
1.652
1.647
1.637
1.632
1.647
1.657
1.632
1.623
1.647
1.652
1.642
1.628
1.632
1.652
1.637
1.628
1.642
1.657
1.652
1.642
1.642
1.657
1.642
1.618
1.623
1.642
1.652
1.642
1.642
1.662
1.672
1.647
1.647
1.667
1.667
1.652
1.642
1.647
1.667
1.642
1.623
1.632
1.652
1.652
1.652
1.662
1.686
1.691
1.667
1.667
1.681
1.676
1.657
1.637
1.637
1.637
1.608
1.608
1.632
1.652
1.647
1.642
1.652
1.667
1.652
1.642
1.652
1.667
1.662
1.657
1.662
1.681
1.686
1.667
1.676
1.701
1.701
1.696
1.696
1.716
1.725
1.706
1.696
1.711
1.711
1.696
1.686
1.691
1.701
1.681
1.662
1.676
1.696
1.701
1.696
1.706
1.73
1.73
1.706
1.711
1.725
1.716
1.696
1.681
1.681
1.681
1.647
1.632
1.647
1.647
1.637
1.632
1.642
1.662
1.642
1.628
1.637
1.647
1.642
1.632
1.637
1.662
1.667
1.647
1.652
1.662
1.662
1.647
1.632
1.637
1.642
1.628
1.632
1.667
1.686
1.681
1.672
1.676
1.686
1.662
1.632
1.637
1.637
1.628
1.623
1.642
1.676
1.696
1.701
1.74
1.789
1.823
1.848
1.877
1.906
1.921
1.891
1.877
1.877
1.852
1.799
1.735
1.681
1.642
1.569
1.515
1.496
1.481
1.457
1.437
1.437
1.461
1.461
1.442
1.457
1.486
1.5
1.51
1.525
1.564
1.598
1.603
1.623
1.662
1.691
1.696
